PE UV       SUBTECH     SPECTRUM    ASCII       PEDS        4.00        
   -1
05_240.Probe.asc
24/07/02
09:29:18.00
24/07/02
09:29:18.00
student

200,000000
1
Lambda 365
365K7092207
  / Unknown

240
1
0,5
0
0
Both on
1
1
1
None
0
0
0
0
 
 
0
0
0
0
0
 
 
 
0
 
0
400
0
 
0
 
 
 
0
0
0
 
0
 
 
 
0
 
 
0
0
0
0
0
 
 
 
 
0
0


0
0
#HDR
-1
-1
#GR
nm
%T
1.0
0.0
1100,000000
-1,000000
901
8
88,410805
0,003119
#DATA
1100,000000	88,015390
1099,000000	88,041841
1098,000000	88,068761
1097,000000	88,098982
1096,000000	88,133301
1095,000000	88,170455
1094,000000	88,157425
1093,000000	88,154916
1092,000000	88,173444
1091,000000	88,211869
1090,000000	88,258586
1089,000000	88,258202
1088,000000	88,250924
1087,000000	88,260052
1086,000000	88,277741
1085,000000	88,279373
1084,000000	88,312139
1083,000000	88,326592
1082,000000	88,330262
1081,000000	88,336152
1080,000000	88,357260
1079,000000	88,369844
1078,000000	88,368153
1077,000000	88,360010
1076,000000	88,358935
1075,000000	88,374746
1074,000000	88,363458
1073,000000	88,371994
1072,000000	88,365192
1071,000000	88,355426
1070,000000	88,365921
1069,000000	88,389727
1068,000000	88,385264
1067,000000	88,378721
1066,000000	88,380144
1065,000000	88,388021
1064,000000	88,364528
1063,000000	88,378506
1062,000000	88,390605
1061,000000	88,386896
1060,000000	88,369993
1059,000000	88,384947
1058,000000	88,391432
1057,000000	88,398685
1056,000000	88,400442
1055,000000	88,393284
1054,000000	88,388627
1053,000000	88,408340
1052,000000	88,408518
1051,000000	88,400858
1050,000000	88,398427
1049,000000	88,402135
1048,000000	88,410805
1047,000000	88,405591
1046,000000	88,401298
1045,000000	88,405377
1044,000000	88,406131
1043,000000	88,400466
1042,000000	88,397854
1041,000000	88,398551
1040,000000	88,398942
1039,000000	88,390113
1038,000000	88,383259
1037,000000	88,382753
1036,000000	88,382831
1035,000000	88,378747
1034,000000	88,367323
1033,000000	88,364248
1032,000000	88,372747
1031,000000	88,368850
1030,000000	88,355804
1029,000000	88,364377
1028,000000	88,355205
1027,000000	88,348121
1026,000000	88,347712
1025,000000	88,352315
1024,000000	88,355052
1023,000000	88,347881
1022,000000	88,335580
1021,000000	88,337096
1020,000000	88,346504
1019,000000	88,342866
1018,000000	88,340630
1017,000000	88,350193
1016,000000	88,349150
1015,000000	88,342804
1014,000000	88,347944
1013,000000	88,335249
1012,000000	88,339095
1011,000000	88,345253
1010,000000	88,347552
1009,000000	88,343762
1008,000000	88,336294
1007,000000	88,330891
1006,000000	88,333542
1005,000000	88,335646
1004,000000	88,327467
1003,000000	88,326690
1002,000000	88,324219
1001,000000	88,324752
1000,000000	88,323779
999,000000	88,316406
998,000000	88,308620
997,000000	88,303321
996,000000	88,300485
995,000000	88,295341
994,000000	88,286520
993,000000	88,290765
992,000000	88,282385
991,000000	88,277353
990,000000	88,277717
989,000000	88,279043
988,000000	88,263693
987,000000	88,254438
986,000000	88,252280
985,000000	88,249520
984,000000	88,243470
983,000000	88,247159
982,000000	88,239831
981,000000	88,226921
980,000000	88,222000
979,000000	88,227324
978,000000	88,220967
977,000000	88,211873
976,000000	88,209577
975,000000	88,205139
974,000000	88,197126
973,000000	88,198145
972,000000	88,197455
971,000000	88,197799
970,000000	88,191502
969,000000	88,181204
968,000000	88,183448
967,000000	88,180875
966,000000	88,178932
965,000000	88,177133
964,000000	88,174371
963,000000	88,169155
962,000000	88,176247
961,000000	88,170141
960,000000	88,160791
959,000000	88,155894
958,000000	88,160393
957,000000	88,149456
956,000000	88,153845
955,000000	88,155759
954,000000	88,149778
953,000000	88,139908
952,000000	88,147133
951,000000	88,144567
950,000000	88,137319
949,000000	88,130211
948,000000	88,127983
947,000000	88,134300
946,000000	88,125055
945,000000	88,119801
944,000000	88,119933
943,000000	88,117903
942,000000	88,098224
941,000000	88,105230
940,000000	88,100367
939,000000	88,090038
938,000000	88,090580
937,000000	88,078362
936,000000	88,071863
935,000000	88,073560
934,000000	88,066143
933,000000	88,035495
932,000000	88,011879
931,000000	88,007311
930,000000	87,994820
929,000000	87,968445
928,000000	87,927805
927,000000	87,874920
926,000000	87,805189
925,000000	87,713382
924,000000	87,610921
923,000000	87,510251
922,000000	87,416731
921,000000	87,328813
920,000000	87,253269
919,000000	87,180454
918,000000	87,106018
917,000000	87,045106
916,000000	86,978376
915,000000	86,919917
914,000000	86,889597
913,000000	86,897607
912,000000	86,937000
911,000000	86,983497
910,000000	87,026775
909,000000	87,070269
908,000000	87,117753
907,000000	87,172390
906,000000	87,228272
905,000000	87,287868
904,000000	87,334120
903,000000	87,364532
902,000000	87,396486
901,000000	87,409747
900,000000	87,414535
899,000000	87,409366
898,000000	87,393883
897,000000	87,368998
896,000000	87,321485
895,000000	87,276052
894,000000	87,214321
893,000000	87,130861
892,000000	87,032144
891,000000	86,936304
890,000000	86,839291
889,000000	86,755124
888,000000	86,687112
887,000000	86,630216
886,000000	86,566719
885,000000	86,522508
884,000000	86,500957
883,000000	86,493459
882,000000	86,489636
881,000000	86,554486
880,000000	86,637782
879,000000	86,724875
878,000000	86,815562
877,000000	86,914917
876,000000	87,022008
875,000000	87,112403
874,000000	87,203214
873,000000	87,287604
872,000000	87,356102
871,000000	87,433673
870,000000	87,478258
869,000000	87,531594
868,000000	87,577089
867,000000	87,594806
866,000000	87,626475
865,000000	87,641417
864,000000	87,648004
863,000000	87,655631
862,000000	87,668162
861,000000	87,665743
860,000000	87,678660
859,000000	87,680789
858,000000	87,679971
857,000000	87,683941
856,000000	87,682945
855,000000	87,693099
854,000000	87,690427
853,000000	87,684741
852,000000	87,688166
851,000000	87,709088
850,000000	87,699152
849,000000	87,688645
848,000000	87,676160
847,000000	87,665059
846,000000	87,673646
845,000000	87,680529
844,000000	87,670470
843,000000	87,658195
842,000000	87,656873
841,000000	87,675087
840,000000	87,658221
839,000000	87,647674
838,000000	87,642111
837,000000	87,635380
836,000000	87,617093
835,000000	87,637052
834,000000	87,621027
833,000000	87,611210
832,000000	87,615266
831,000000	87,605501
830,000000	87,595580
829,000000	87,590290
828,000000	87,582511
827,000000	87,574319
826,000000	87,574850
825,000000	87,583552
824,000000	87,582567
823,000000	87,568644
822,000000	87,550347
821,000000	87,543660
820,000000	87,557285
819,000000	87,555764
818,000000	87,538373
817,000000	87,522364
816,000000	87,529202
815,000000	87,518367
814,000000	87,501133
813,000000	87,486141
812,000000	87,473919
811,000000	87,463242
810,000000	87,465934
809,000000	87,464400
808,000000	87,453254
807,000000	87,439631
806,000000	87,433795
805,000000	87,439145
804,000000	87,416915
803,000000	87,396758
802,000000	87,393906
801,000000	87,411287
800,000000	87,422382
799,000000	87,388655
798,000000	87,378951
797,000000	87,375424
796,000000	87,367624
795,000000	87,386137
794,000000	87,367056
793,000000	87,355838
792,000000	87,346312
791,000000	87,340258
790,000000	87,354977
789,000000	87,329636
788,000000	87,326677
787,000000	87,325757
786,000000	87,316693
785,000000	87,301304
784,000000	87,318940
783,000000	87,320571
782,000000	87,294573
781,000000	87,264228
780,000000	87,266958
779,000000	87,259265
778,000000	87,228963
777,000000	87,209615
776,000000	87,193477
775,000000	87,166097
774,000000	87,171576
773,000000	87,161743
772,000000	87,159523
771,000000	87,159014
770,000000	87,153174
769,000000	87,156957
768,000000	87,156951
767,000000	87,151899
766,000000	87,147401
765,000000	87,145724
764,000000	87,138751
763,000000	87,138736
762,000000	87,129013
761,000000	87,113689
760,000000	87,095022
759,000000	87,069964
758,000000	87,054760
757,000000	87,046241
756,000000	87,034691
755,000000	87,016070
754,000000	86,992831
753,000000	86,992708
752,000000	86,994470
751,000000	86,989480
750,000000	86,986406
749,000000	87,000887
748,000000	86,985801
747,000000	86,983538
746,000000	86,989790
745,000000	86,990724
744,000000	86,975436
743,000000	86,981427
742,000000	86,966172
741,000000	86,963341
740,000000	86,959385
739,000000	86,938013
738,000000	86,920490
737,000000	86,921763
736,000000	86,916435
735,000000	86,917637
734,000000	86,932526
733,000000	86,939826
732,000000	86,947980
731,000000	86,944256
730,000000	86,943081
729,000000	86,949030
728,000000	86,948157
727,000000	86,921495
726,000000	86,919034
725,000000	86,910793
724,000000	86,896336
723,000000	86,905076
722,000000	86,892729
721,000000	86,889080
720,000000	86,893963
719,000000	86,896671
718,000000	86,882299
717,000000	86,867895
716,000000	86,862429
715,000000	86,857966
714,000000	86,853346
713,000000	86,849393
712,000000	86,842170
711,000000	86,849048
710,000000	86,845855
709,000000	86,828766
708,000000	86,804793
707,000000	86,801832
706,000000	86,795221
705,000000	86,793432
704,000000	86,785326
703,000000	86,768986
702,000000	86,770989
701,000000	86,763280
700,000000	86,749108
699,000000	86,738429
698,000000	86,735720
697,000000	86,736695
696,000000	86,717863
695,000000	86,721204
694,000000	86,713657
693,000000	86,692442
692,000000	86,684401
691,000000	86,675084
690,000000	86,669795
689,000000	86,665448
688,000000	86,655331
687,000000	86,632600
686,000000	86,611836
685,000000	86,615612
684,000000	86,612519
683,000000	86,599324
682,000000	86,581435
681,000000	86,548530
680,000000	86,517875
679,000000	86,489349
678,000000	86,456528
677,000000	86,412949
676,000000	86,354541
675,000000	86,281181
674,000000	86,166131
673,000000	86,007048
672,000000	85,785089
671,000000	85,414116
670,000000	84,707690
669,000000	83,655049
668,000000	82,371082
667,000000	80,988572
666,000000	79,655447
665,000000	78,548423
664,000000	77,599063
663,000000	76,971067
662,000000	76,795792
661,000000	77,126002
660,000000	77,559674
659,000000	77,999544
658,000000	78,446551
657,000000	78,791767
656,000000	78,784815
655,000000	78,218405
654,000000	77,194585
653,000000	75,802116
652,000000	74,146019
651,000000	72,340364
650,000000	70,581908
649,000000	69,967480
648,000000	70,155529
647,000000	70,608651
646,000000	70,774076
645,000000	70,956537
644,000000	70,975883
643,000000	70,551042
642,000000	69,501598
641,000000	67,767675
640,000000	65,588488
639,000000	64,033012
638,000000	63,355080
637,000000	63,547174
636,000000	64,500315
635,000000	66,115204
634,000000	68,726804
633,000000	71,898777
632,000000	75,167145
631,000000	78,075660
630,000000	80,189091
629,000000	81,566641
628,000000	82,524749
627,000000	83,216367
626,000000	83,744095
625,000000	84,149601
624,000000	84,439118
623,000000	84,701619
622,000000	84,919912
621,000000	85,093660
620,000000	85,236516
619,000000	85,364855
618,000000	85,483455
617,000000	85,583707
616,000000	85,665408
615,000000	85,731425
614,000000	85,771311
613,000000	85,788592
612,000000	85,792618
611,000000	85,797748
610,000000	85,811822
609,000000	85,808433
608,000000	85,818865
607,000000	85,817026
606,000000	85,814970
605,000000	85,820605
604,000000	85,816517
603,000000	85,790402
602,000000	85,779967
601,000000	85,771511
600,000000	85,756715
599,000000	85,741833
598,000000	85,716590
597,000000	85,719938
596,000000	85,727240
595,000000	85,732261
594,000000	85,747540
593,000000	85,755999
592,000000	85,752817
591,000000	85,756869
590,000000	85,766338
589,000000	85,767628
588,000000	85,758840
587,000000	85,744301
586,000000	85,731783
585,000000	85,725077
584,000000	85,724960
583,000000	85,724429
582,000000	85,717348
581,000000	85,707211
580,000000	85,704199
579,000000	85,708224
578,000000	85,678731
577,000000	85,675554
576,000000	85,668660
575,000000	85,658727
574,000000	85,651637
573,000000	85,656431
572,000000	85,621020
571,000000	85,607543
570,000000	85,598520
569,000000	85,583439
568,000000	85,566670
567,000000	85,554417
566,000000	85,530140
565,000000	85,502809
564,000000	85,477277
563,000000	85,454234
562,000000	85,424036
561,000000	85,356726
560,000000	85,278362
559,000000	85,181209
558,000000	85,033033
557,000000	84,726321
556,000000	84,071990
555,000000	82,855277
554,000000	81,317700
553,000000	79,871585
552,000000	78,987531
551,000000	77,781141
550,000000	76,214821
549,000000	74,046232
548,000000	71,404153
547,000000	69,822184
546,000000	69,599746
545,000000	69,686544
544,000000	69,492487
543,000000	68,377453
542,000000	65,531212
541,000000	61,671493
540,000000	56,194613
539,000000	50,022176
538,000000	44,669719
537,000000	42,135695
536,000000	42,697797
535,000000	47,690366
534,000000	55,413974
533,000000	63,925137
532,000000	71,142630
531,000000	75,518495
530,000000	78,309473
529,000000	80,138577
528,000000	81,347299
527,000000	82,182348
526,000000	82,778303
525,000000	83,223874
524,000000	83,558123
523,000000	83,788730
522,000000	83,931694
521,000000	84,056333
520,000000	84,158160
519,000000	84,233535
518,000000	84,296113
517,000000	84,374849
516,000000	84,533112
515,000000	84,563549
514,000000	84,542424
513,000000	84,492805
512,000000	84,436654
511,000000	84,402659
510,000000	84,363982
509,000000	84,327934
508,000000	84,306130
507,000000	84,315142
506,000000	84,377628
505,000000	84,392480
504,000000	84,416842
503,000000	84,423100
502,000000	84,400917
501,000000	84,356043
500,000000	84,269138
499,000000	84,129113
498,000000	83,914952
497,000000	83,552945
496,000000	82,949687
495,000000	82,078840
494,000000	81,052315
493,000000	79,484449
492,000000	77,631017
491,000000	75,892082
490,000000	73,892169
489,000000	71,840665
488,000000	71,051668
487,000000	71,179899
486,000000	71,312964
485,000000	70,030367
484,000000	70,104940
483,000000	71,989124
482,000000	74,481764
481,000000	76,606986
480,000000	78,558382
479,000000	79,302197
478,000000	78,204152
477,000000	75,671930
476,000000	72,556375
475,000000	70,233280
474,000000	69,422157
473,000000	69,846296
472,000000	70,698060
471,000000	71,619280
470,000000	72,759501
469,000000	71,434047
468,000000	68,187602
467,000000	64,244566
466,000000	58,844657
465,000000	49,192105
464,000000	34,359165
463,000000	24,331826
462,000000	16,987220
461,000000	11,169202
460,000000	7,850002
459,000000	11,474750
458,000000	20,532884
457,000000	27,438885
456,000000	26,366857
455,000000	18,335223
454,000000	12,280300
453,000000	11,213690
452,000000	14,747349
451,000000	20,768281
450,000000	23,240914
449,000000	14,005631
448,000000	6,109384
447,000000	1,845544
446,000000	0,802973
445,000000	0,809487
444,000000	5,734682
443,000000	26,672016
442,000000	47,330046
441,000000	60,852496
440,000000	67,598370
439,000000	71,529661
438,000000	74,528950
437,000000	76,772342
436,000000	78,263524
435,000000	79,068341
434,000000	79,372793
433,000000	79,515309
432,000000	79,814913
431,000000	80,011305
430,000000	79,811516
429,000000	78,957489
428,000000	77,404308
427,000000	74,744388
426,000000	72,158839
425,000000	70,812170
424,000000	71,477946
423,000000	73,991687
422,000000	71,657970
421,000000	65,902430
420,000000	59,161320
419,000000	54,558921
418,000000	55,386644
417,000000	63,567442
416,000000	67,885749
415,000000	69,710991
414,000000	71,058405
413,000000	73,818290
412,000000	76,992682
411,000000	78,786013
410,000000	79,865463
409,000000	80,489906
408,000000	80,824125
407,000000	80,919831
406,000000	81,023937
405,000000	81,051840
404,000000	81,009507
403,000000	80,947927
402,000000	80,996129
401,000000	80,921521
400,000000	80,749766
399,000000	80,219993
398,000000	80,395128
397,000000	80,316728
396,000000	79,922607
395,000000	79,941541
394,000000	79,730771
393,000000	78,985760
392,000000	77,748919
391,000000	77,354662
390,000000	77,877196
389,000000	77,716767
388,000000	76,108624
387,000000	72,968068
386,000000	71,404781
385,000000	73,686173
384,000000	75,617670
383,000000	75,102968
382,000000	71,753235
381,000000	74,425408
380,000000	77,315717
379,000000	78,565546
378,000000	78,439554
377,000000	78,609571
376,000000	78,659129
375,000000	78,702090
374,000000	78,738453
373,000000	78,603781
372,000000	77,986360
371,000000	75,149720
370,000000	72,203262
369,000000	69,804087
368,000000	68,256990
367,000000	67,440066
366,000000	62,580978
365,000000	56,055932
364,000000	49,070104
363,000000	40,666981
362,000000	27,939806
361,000000	10,719145
360,000000	26,817214
359,000000	47,009806
358,000000	61,320723
357,000000	69,247541
356,000000	71,989384
355,000000	73,245483
354,000000	73,532827
353,000000	73,236427
352,000000	72,725799
351,000000	72,949728
350,000000	71,961888
349,000000	70,184876
348,000000	68,893166
347,000000	69,455984
346,000000	70,813191
345,000000	70,091954
344,000000	70,546687
343,000000	71,629092
342,000000	71,947822
341,000000	71,855168
340,000000	72,234981
339,000000	72,347427
338,000000	71,858064
337,000000	70,805285
336,000000	69,996443
335,000000	66,358240
334,000000	62,953625
333,000000	64,187543
332,000000	69,780826
331,000000	71,267765
330,000000	72,882828
329,000000	73,278901
328,000000	73,195718
327,000000	73,001668
326,000000	72,618253
325,000000	72,521582
324,000000	72,031800
323,000000	71,605755
322,000000	71,397453
321,000000	71,354755
320,000000	71,130731
319,000000	70,889600
318,000000	70,631191
317,000000	70,333868
316,000000	69,986731
315,000000	69,624736
314,000000	69,401747
313,000000	69,049793
312,000000	68,741521
311,000000	68,554949
310,000000	68,179969
309,000000	67,898636
308,000000	67,571627
307,000000	67,213767
306,000000	66,836536
305,000000	66,429486
304,000000	66,062173
303,000000	65,549444
302,000000	65,057001
301,000000	64,544321
300,000000	63,819328
299,000000	62,842277
298,000000	61,695092
297,000000	60,400266
296,000000	58,968335
295,000000	57,426688
294,000000	55,903617
293,000000	55,071361
292,000000	53,065430
291,000000	48,718279
290,000000	43,304556
289,000000	45,956001
288,000000	34,511291
287,000000	41,240513
286,000000	51,929481
285,000000	54,541416
284,000000	54,172605
283,000000	52,877449
282,000000	50,629207
281,000000	44,972665
280,000000	35,762779
279,000000	32,636053
278,000000	41,395747
277,000000	45,593144
276,000000	45,924315
275,000000	45,689951
274,000000	45,743788
273,000000	45,794113
272,000000	45,467297
271,000000	44,859849
270,000000	44,208371
269,000000	43,858054
268,000000	43,088511
267,000000	42,214582
266,000000	41,071480
265,000000	39,698644
264,000000	38,175661
263,000000	34,989387
262,000000	34,408367
261,000000	33,817040
260,000000	33,496053
259,000000	34,156223
258,000000	33,463290
257,000000	32,423999
256,000000	31,182182
255,000000	29,854860
254,000000	28,448217
253,000000	26,689328
252,000000	24,163019
251,000000	21,939672
250,000000	20,313837
249,000000	19,057598
248,000000	17,374572
247,000000	15,146934
246,000000	12,814648
245,000000	10,326233
244,000000	7,697090
243,000000	5,040624
242,000000	2,259309
241,000000	1,669869
240,000000	1,374293
239,000000	0,699835
238,000000	0,209489
237,000000	0,040008
236,000000	0,003169
235,000000	0,003167
234,000000	0,003198
233,000000	0,003119
232,000000	0,003136
231,000000	0,003249
230,000000	0,003253
229,000000	0,003241
228,000000	0,003382
227,000000	0,003547
226,000000	0,003462
225,000000	0,003534
224,000000	0,003634
223,000000	0,003594
222,000000	0,003632
221,000000	0,003864
220,000000	0,003947
219,000000	0,003982
218,000000	0,004064
217,000000	0,004110
216,000000	0,004106
215,000000	0,004291
214,000000	0,004529
213,000000	0,004742
212,000000	0,004990
211,000000	0,005113
210,000000	0,005068
209,000000	0,005269
208,000000	0,005746
207,000000	0,006071
206,000000	0,006178
205,000000	0,006737
204,000000	0,007124
203,000000	0,007340
202,000000	0,007903
201,000000	0,008833
200,000000	0,009178
