PE UV       SUBTECH     SPECTRUM    ASCII       PEDS        4.00        
   -1
05_480.Probe.asc
24/07/02
09:18:59.00
24/07/02
09:18:59.00
student

200,000000
1
Lambda 365
365K7092207
  / Unknown

480
1
0,5
0
0
Both on
1
1
1
None
0
0
0
0
 
 
0
0
0
0
0
 
 
 
0
 
0
400
0
 
0
 
 
 
0
0
0
 
0
 
 
 
0
 
 
0
0
0
0
0
 
 
 
 
0
0


0
0
#HDR
-1
-1
#GR
nm
%T
1.0
0.0
1100,000000
-1,000000
901
8
88,381991
0,003171
#DATA
1100,000000	88,026721
1099,000000	88,046881
1098,000000	88,054471
1097,000000	88,080867
1096,000000	88,114028
1095,000000	88,099266
1094,000000	88,158926
1093,000000	88,187682
1092,000000	88,203999
1091,000000	88,213420
1090,000000	88,211584
1089,000000	88,214725
1088,000000	88,253240
1087,000000	88,261445
1086,000000	88,246087
1085,000000	88,258429
1084,000000	88,303207
1083,000000	88,309624
1082,000000	88,298748
1081,000000	88,287570
1080,000000	88,289247
1079,000000	88,292543
1078,000000	88,310180
1077,000000	88,324539
1076,000000	88,329828
1075,000000	88,325791
1074,000000	88,315705
1073,000000	88,325260
1072,000000	88,355157
1071,000000	88,381991
1070,000000	88,381168
1069,000000	88,370999
1068,000000	88,359978
1067,000000	88,363833
1066,000000	88,363750
1065,000000	88,347391
1064,000000	88,378763
1063,000000	88,360335
1062,000000	88,351183
1061,000000	88,347414
1060,000000	88,339064
1059,000000	88,342171
1058,000000	88,326825
1057,000000	88,333566
1056,000000	88,348686
1055,000000	88,353786
1054,000000	88,340370
1053,000000	88,326746
1052,000000	88,328626
1051,000000	88,334469
1050,000000	88,335109
1049,000000	88,334349
1048,000000	88,341025
1047,000000	88,329442
1046,000000	88,322961
1045,000000	88,328573
1044,000000	88,314096
1043,000000	88,326697
1042,000000	88,321184
1041,000000	88,310052
1040,000000	88,302107
1039,000000	88,295168
1038,000000	88,283977
1037,000000	88,282351
1036,000000	88,279765
1035,000000	88,271151
1034,000000	88,259296
1033,000000	88,244481
1032,000000	88,246053
1031,000000	88,247630
1030,000000	88,244371
1029,000000	88,243674
1028,000000	88,235634
1027,000000	88,240424
1026,000000	88,234128
1025,000000	88,218753
1024,000000	88,216781
1023,000000	88,207474
1022,000000	88,214971
1021,000000	88,220132
1020,000000	88,216188
1019,000000	88,205820
1018,000000	88,214617
1017,000000	88,202865
1016,000000	88,198185
1015,000000	88,201733
1014,000000	88,200798
1013,000000	88,187522
1012,000000	88,189695
1011,000000	88,192712
1010,000000	88,191898
1009,000000	88,188200
1008,000000	88,195799
1007,000000	88,181263
1006,000000	88,180451
1005,000000	88,189451
1004,000000	88,191943
1003,000000	88,182082
1002,000000	88,177870
1001,000000	88,183342
1000,000000	88,183592
999,000000	88,167321
998,000000	88,169096
997,000000	88,164349
996,000000	88,159186
995,000000	88,160594
994,000000	88,168151
993,000000	88,150726
992,000000	88,154643
991,000000	88,154316
990,000000	88,148177
989,000000	88,138821
988,000000	88,128684
987,000000	88,133525
986,000000	88,134842
985,000000	88,132696
984,000000	88,129798
983,000000	88,129575
982,000000	88,125244
981,000000	88,121858
980,000000	88,118883
979,000000	88,115868
978,000000	88,113685
977,000000	88,109328
976,000000	88,102035
975,000000	88,095047
974,000000	88,091295
973,000000	88,092961
972,000000	88,083576
971,000000	88,079393
970,000000	88,080245
969,000000	88,085492
968,000000	88,094844
967,000000	88,084743
966,000000	88,082896
965,000000	88,082664
964,000000	88,080432
963,000000	88,076337
962,000000	88,055876
961,000000	88,055078
960,000000	88,055171
959,000000	88,053020
958,000000	88,058349
957,000000	88,053481
956,000000	88,051873
955,000000	88,055717
954,000000	88,054790
953,000000	88,033482
952,000000	88,038182
951,000000	88,041155
950,000000	88,044476
949,000000	88,038702
948,000000	88,013325
947,000000	88,023960
946,000000	88,012321
945,000000	88,012763
944,000000	88,011049
943,000000	87,981290
942,000000	87,990422
941,000000	87,987363
940,000000	87,979289
939,000000	87,971691
938,000000	87,967169
937,000000	87,950486
936,000000	87,946893
935,000000	87,936986
934,000000	87,923957
933,000000	87,914263
932,000000	87,896772
931,000000	87,881353
930,000000	87,865038
929,000000	87,841169
928,000000	87,801547
927,000000	87,732708
926,000000	87,660787
925,000000	87,565431
924,000000	87,464342
923,000000	87,371834
922,000000	87,269588
921,000000	87,183235
920,000000	87,108720
919,000000	87,034958
918,000000	86,958563
917,000000	86,898741
916,000000	86,837401
915,000000	86,775015
914,000000	86,740828
913,000000	86,750068
912,000000	86,787616
911,000000	86,823227
910,000000	86,879002
909,000000	86,929379
908,000000	86,968188
907,000000	87,025642
906,000000	87,084720
905,000000	87,139537
904,000000	87,185185
903,000000	87,221722
902,000000	87,255440
901,000000	87,263777
900,000000	87,264950
899,000000	87,266754
898,000000	87,258507
897,000000	87,210891
896,000000	87,170577
895,000000	87,112562
894,000000	87,046695
893,000000	86,977606
892,000000	86,904541
891,000000	86,790061
890,000000	86,697595
889,000000	86,613714
888,000000	86,537776
887,000000	86,476694
886,000000	86,427139
885,000000	86,397801
884,000000	86,378194
883,000000	86,366031
882,000000	86,365646
881,000000	86,417768
880,000000	86,490275
879,000000	86,589590
878,000000	86,699059
877,000000	86,794840
876,000000	86,889564
875,000000	86,988323
874,000000	87,074805
873,000000	87,156412
872,000000	87,242318
871,000000	87,294224
870,000000	87,345343
869,000000	87,390494
868,000000	87,426892
867,000000	87,453993
866,000000	87,477267
865,000000	87,492436
864,000000	87,509065
863,000000	87,516575
862,000000	87,511762
861,000000	87,536608
860,000000	87,525622
859,000000	87,526489
858,000000	87,534904
857,000000	87,544968
856,000000	87,572523
855,000000	87,553840
854,000000	87,554845
853,000000	87,556804
852,000000	87,546791
851,000000	87,551089
850,000000	87,515984
849,000000	87,505495
848,000000	87,510833
847,000000	87,520265
846,000000	87,529098
845,000000	87,515012
844,000000	87,512262
843,000000	87,509738
842,000000	87,500819
841,000000	87,489792
840,000000	87,488227
839,000000	87,485809
838,000000	87,479404
837,000000	87,468254
836,000000	87,454233
835,000000	87,468315
834,000000	87,456955
833,000000	87,454404
832,000000	87,459462
831,000000	87,435765
830,000000	87,448659
829,000000	87,421660
828,000000	87,411241
827,000000	87,418916
826,000000	87,404560
825,000000	87,411026
824,000000	87,404513
823,000000	87,397335
822,000000	87,389239
821,000000	87,373796
820,000000	87,375331
819,000000	87,382031
818,000000	87,383007
817,000000	87,370622
816,000000	87,342861
815,000000	87,341108
814,000000	87,333013
813,000000	87,337763
812,000000	87,342672
811,000000	87,327716
810,000000	87,320033
809,000000	87,304778
808,000000	87,294897
807,000000	87,294737
806,000000	87,301740
805,000000	87,290533
804,000000	87,296956
803,000000	87,294664
802,000000	87,283978
801,000000	87,272870
800,000000	87,274995
799,000000	87,258266
798,000000	87,262114
797,000000	87,256891
796,000000	87,235068
795,000000	87,256282
794,000000	87,226337
793,000000	87,210038
792,000000	87,220336
791,000000	87,240345
790,000000	87,217224
789,000000	87,206041
788,000000	87,190120
787,000000	87,182694
786,000000	87,178708
785,000000	87,158049
784,000000	87,169218
783,000000	87,167995
782,000000	87,157444
781,000000	87,138927
780,000000	87,114753
779,000000	87,108000
778,000000	87,086443
777,000000	87,071113
776,000000	87,054396
775,000000	87,024859
774,000000	87,015553
773,000000	87,005885
772,000000	87,017829
771,000000	87,024771
770,000000	87,005195
769,000000	87,000713
768,000000	86,996963
767,000000	87,000893
766,000000	86,993889
765,000000	86,971551
764,000000	86,971470
763,000000	86,962151
762,000000	86,949042
761,000000	86,944849
760,000000	86,947168
759,000000	86,930008
758,000000	86,906163
757,000000	86,891861
756,000000	86,875643
755,000000	86,859954
754,000000	86,860789
753,000000	86,851458
752,000000	86,831915
751,000000	86,825418
750,000000	86,830090
749,000000	86,828539
748,000000	86,822853
747,000000	86,815525
746,000000	86,819529
745,000000	86,824668
744,000000	86,815366
743,000000	86,806682
742,000000	86,796354
741,000000	86,794593
740,000000	86,790104
739,000000	86,773601
738,000000	86,765948
737,000000	86,765895
736,000000	86,764532
735,000000	86,761518
734,000000	86,758208
733,000000	86,756916
732,000000	86,752158
731,000000	86,757162
730,000000	86,766129
729,000000	86,769978
728,000000	86,757080
727,000000	86,759874
726,000000	86,752402
725,000000	86,745734
724,000000	86,744562
723,000000	86,745783
722,000000	86,730027
721,000000	86,723730
720,000000	86,714745
719,000000	86,705085
718,000000	86,704171
717,000000	86,699516
716,000000	86,694394
715,000000	86,680132
714,000000	86,667481
713,000000	86,669515
712,000000	86,662132
711,000000	86,637560
710,000000	86,630639
709,000000	86,636993
708,000000	86,642573
707,000000	86,634958
706,000000	86,617697
705,000000	86,604871
704,000000	86,599532
703,000000	86,598335
702,000000	86,586874
701,000000	86,568856
700,000000	86,559924
699,000000	86,554654
698,000000	86,546201
697,000000	86,528054
696,000000	86,530508
695,000000	86,530954
694,000000	86,521764
693,000000	86,506646
692,000000	86,499304
691,000000	86,495945
690,000000	86,489233
689,000000	86,478937
688,000000	86,465743
687,000000	86,450958
686,000000	86,435372
685,000000	86,426515
684,000000	86,415693
683,000000	86,398585
682,000000	86,376159
681,000000	86,371485
680,000000	86,351273
679,000000	86,315081
678,000000	86,275288
677,000000	86,238741
676,000000	86,175931
675,000000	86,098318
674,000000	85,993997
673,000000	85,841984
672,000000	85,611456
671,000000	85,230509
670,000000	84,521013
669,000000	83,490488
668,000000	82,192755
667,000000	80,766273
666,000000	79,466488
665,000000	78,379288
664,000000	77,425731
663,000000	76,793704
662,000000	76,628330
661,000000	76,970735
660,000000	77,395004
659,000000	77,840852
658,000000	78,289874
657,000000	78,622599
656,000000	78,605001
655,000000	78,039283
654,000000	77,014943
653,000000	75,619834
652,000000	73,955740
651,000000	72,142499
650,000000	70,412117
649,000000	69,822037
648,000000	70,016945
647,000000	70,468203
646,000000	70,638027
645,000000	70,807725
644,000000	70,826441
643,000000	70,403478
642,000000	69,345826
641,000000	67,594419
640,000000	65,460607
639,000000	63,889847
638,000000	63,222680
637,000000	63,438865
636,000000	64,404465
635,000000	66,014508
634,000000	68,640023
633,000000	71,808598
632,000000	75,042559
631,000000	77,899481
630,000000	80,014394
629,000000	81,380812
628,000000	82,356912
627,000000	83,056613
626,000000	83,567916
625,000000	83,950888
624,000000	84,264623
623,000000	84,506346
622,000000	84,708932
621,000000	84,893474
620,000000	85,069121
619,000000	85,189362
618,000000	85,323345
617,000000	85,416477
616,000000	85,476481
615,000000	85,533598
614,000000	85,564169
613,000000	85,584578
612,000000	85,596912
611,000000	85,604458
610,000000	85,609684
609,000000	85,608752
608,000000	85,613771
607,000000	85,619063
606,000000	85,625432
605,000000	85,630565
604,000000	85,621773
603,000000	85,601052
602,000000	85,581053
601,000000	85,563672
600,000000	85,544867
599,000000	85,512834
598,000000	85,534171
597,000000	85,522995
596,000000	85,518302
595,000000	85,528951
594,000000	85,532851
593,000000	85,559914
592,000000	85,563369
591,000000	85,562656
590,000000	85,560358
589,000000	85,551149
588,000000	85,556538
587,000000	85,545243
586,000000	85,532847
585,000000	85,525095
584,000000	85,522775
583,000000	85,519196
582,000000	85,511944
581,000000	85,489654
580,000000	85,475605
579,000000	85,483636
578,000000	85,468844
577,000000	85,467175
576,000000	85,467879
575,000000	85,460228
574,000000	85,439558
573,000000	85,413160
572,000000	85,408387
571,000000	85,396401
570,000000	85,385094
569,000000	85,376484
568,000000	85,362472
567,000000	85,340505
566,000000	85,323757
565,000000	85,309674
564,000000	85,285245
563,000000	85,232200
562,000000	85,191400
561,000000	85,149742
560,000000	85,080039
559,000000	84,971086
558,000000	84,813424
557,000000	84,524901
556,000000	83,872204
555,000000	82,650759
554,000000	81,117030
553,000000	79,688257
552,000000	78,784167
551,000000	77,576982
550,000000	75,983895
549,000000	73,795881
548,000000	71,173939
547,000000	69,645030
546,000000	69,406363
545,000000	69,498206
544,000000	69,297215
543,000000	68,161643
542,000000	65,354579
541,000000	61,500079
540,000000	56,016824
539,000000	49,868970
538,000000	44,568519
537,000000	42,039514
536,000000	42,597014
535,000000	47,629464
534,000000	55,394113
533,000000	63,903769
532,000000	71,055336
531,000000	75,395872
530,000000	78,133985
529,000000	79,937820
528,000000	81,136640
527,000000	81,944232
526,000000	82,533926
525,000000	82,977473
524,000000	83,309364
523,000000	83,556766
522,000000	83,740488
521,000000	83,828341
520,000000	83,933400
519,000000	83,999480
518,000000	84,058757
517,000000	84,145504
516,000000	84,245229
515,000000	84,290937
514,000000	84,305318
513,000000	84,275274
512,000000	84,207190
511,000000	84,151330
510,000000	84,093615
509,000000	84,070499
508,000000	84,077200
507,000000	84,096701
506,000000	84,100035
505,000000	84,133619
504,000000	84,161514
503,000000	84,155868
502,000000	84,123449
501,000000	84,099205
500,000000	84,021691
499,000000	83,881862
498,000000	83,654232
497,000000	83,287134
496,000000	82,712020
495,000000	81,782447
494,000000	80,797700
493,000000	79,234167
492,000000	77,364611
491,000000	75,643472
490,000000	73,620704
489,000000	71,607726
488,000000	70,867614
487,000000	71,009853
486,000000	71,107145
485,000000	69,836642
484,000000	69,875744
483,000000	71,761659
482,000000	74,238864
481,000000	76,309686
480,000000	78,291176
479,000000	79,051989
478,000000	77,967040
477,000000	75,443639
476,000000	72,328789
475,000000	69,985299
474,000000	69,180268
473,000000	69,611030
472,000000	70,470451
471,000000	71,399442
470,000000	72,545407
469,000000	71,198296
468,000000	67,928504
467,000000	64,011347
466,000000	58,692110
465,000000	49,107310
464,000000	34,262990
463,000000	24,271011
462,000000	16,925129
461,000000	11,078516
460,000000	7,863433
459,000000	11,577109
458,000000	20,616318
457,000000	27,403279
456,000000	26,182791
455,000000	18,168162
454,000000	12,225802
453,000000	11,249494
452,000000	14,761897
451,000000	20,640322
450,000000	23,236292
449,000000	14,095080
448,000000	6,198460
447,000000	1,910266
446,000000	0,869556
445,000000	0,878106
444,000000	5,914546
443,000000	26,951143
442,000000	47,434036
441,000000	60,686699
440,000000	67,414450
439,000000	71,343270
438,000000	74,267231
437,000000	76,472555
436,000000	77,969589
435,000000	78,794175
434,000000	79,080983
433,000000	79,264204
432,000000	79,564040
431,000000	79,750391
430,000000	79,528898
429,000000	78,624605
428,000000	77,089467
427,000000	74,423128
426,000000	71,885907
425,000000	70,558720
424,000000	71,160293
423,000000	73,649823
422,000000	71,355556
421,000000	65,661604
420,000000	58,952987
419,000000	54,350540
418,000000	55,154160
417,000000	63,293096
416,000000	67,543879
415,000000	69,387515
414,000000	70,799312
413,000000	73,569667
412,000000	76,653673
411,000000	78,469204
410,000000	79,518580
409,000000	80,066203
408,000000	80,345774
407,000000	80,538500
406,000000	80,608282
405,000000	80,634753
404,000000	80,620868
403,000000	80,567479
402,000000	80,504225
401,000000	80,527025
400,000000	80,430489
399,000000	79,885056
398,000000	79,823254
397,000000	80,251616
396,000000	79,761738
395,000000	79,705683
394,000000	79,570424
393,000000	79,037822
392,000000	78,045729
391,000000	77,208250
390,000000	77,512918
389,000000	77,331085
388,000000	75,793814
387,000000	72,702166
386,000000	71,139723
385,000000	73,040114
384,000000	74,987747
383,000000	74,802982
382,000000	71,360304
381,000000	74,350586
380,000000	76,938976
379,000000	78,189391
378,000000	78,351628
377,000000	78,332513
376,000000	78,605316
375,000000	78,894396
374,000000	78,972095
373,000000	78,707667
372,000000	78,064003
371,000000	75,444439
370,000000	72,265845
369,000000	69,824841
368,000000	68,386563
367,000000	67,326768
366,000000	62,381251
365,000000	56,065579
364,000000	49,235712
363,000000	40,884924
362,000000	28,230785
361,000000	11,278482
360,000000	27,045700
359,000000	47,131192
358,000000	61,569139
357,000000	69,054423
356,000000	71,865846
355,000000	72,876706
354,000000	73,165872
353,000000	73,076952
352,000000	72,605606
351,000000	72,942574
350,000000	72,079061
349,000000	70,296042
348,000000	68,942111
347,000000	69,503445
346,000000	70,681210
345,000000	70,198623
344,000000	70,570844
343,000000	71,503264
342,000000	72,003732
341,000000	71,951168
340,000000	72,285793
339,000000	72,010635
338,000000	71,407791
337,000000	70,772920
336,000000	69,670848
335,000000	66,222414
334,000000	63,033282
333,000000	64,229558
332,000000	69,538831
331,000000	70,979985
330,000000	72,494009
329,000000	73,123820
328,000000	73,239975
327,000000	73,076839
326,000000	72,685798
325,000000	72,212425
324,000000	71,743444
323,000000	71,390562
322,000000	71,180822
321,000000	71,081490
320,000000	70,933444
319,000000	70,676701
318,000000	70,293989
317,000000	69,986769
316,000000	69,886588
315,000000	69,527718
314,000000	69,200737
313,000000	68,840988
312,000000	68,545478
311,000000	68,324011
310,000000	67,922362
309,000000	67,571715
308,000000	67,309819
307,000000	66,991393
306,000000	66,576074
305,000000	66,174577
304,000000	65,778828
303,000000	65,411800
302,000000	64,972863
301,000000	64,414679
300,000000	63,728110
299,000000	62,760323
298,000000	61,534615
297,000000	60,237159
296,000000	58,832089
295,000000	57,252750
294,000000	55,858234
293,000000	55,019716
292,000000	52,768591
291,000000	48,373741
290,000000	43,299065
289,000000	45,697487
288,000000	34,315061
287,000000	41,122885
286,000000	51,830819
285,000000	54,368873
284,000000	54,031686
283,000000	52,799220
282,000000	50,447487
281,000000	44,649414
280,000000	35,436118
279,000000	32,841407
278,000000	41,446839
277,000000	45,559669
276,000000	45,859684
275,000000	45,563370
274,000000	45,638408
273,000000	45,678283
272,000000	45,375200
271,000000	44,733296
270,000000	44,014863
269,000000	43,752294
268,000000	42,913075
267,000000	41,981785
266,000000	40,817507
265,000000	39,464259
264,000000	37,981818
263,000000	34,810402
262,000000	34,244208
261,000000	33,646292
260,000000	33,313043
259,000000	33,974060
258,000000	33,290667
257,000000	32,244899
256,000000	31,023033
255,000000	29,691023
254,000000	28,248172
253,000000	26,539339
252,000000	23,989953
251,000000	21,778149
250,000000	20,139176
249,000000	18,857956
248,000000	17,235360
247,000000	15,023295
246,000000	12,689292
245,000000	10,212773
244,000000	7,611062
243,000000	4,959194
242,000000	2,266082
241,000000	1,678435
240,000000	1,358568
239,000000	0,674478
238,000000	0,209288
237,000000	0,039961
236,000000	0,003223
235,000000	0,003250
234,000000	0,003322
233,000000	0,003311
232,000000	0,003171
231,000000	0,003269
230,000000	0,003398
229,000000	0,003421
228,000000	0,003302
227,000000	0,003424
226,000000	0,003381
225,000000	0,003537
224,000000	0,003708
223,000000	0,003667
222,000000	0,003546
221,000000	0,003741
220,000000	0,003780
219,000000	0,003781
218,000000	0,003911
217,000000	0,004237
216,000000	0,004197
215,000000	0,004197
214,000000	0,004319
213,000000	0,004544
212,000000	0,004731
211,000000	0,004849
210,000000	0,005228
209,000000	0,005636
208,000000	0,005866
207,000000	0,005775
206,000000	0,006040
205,000000	0,006473
204,000000	0,006812
203,000000	0,007176
202,000000	0,007985
201,000000	0,008793
200,000000	0,009189
