PE UV       SUBTECH     SPECTRUM    ASCII       PEDS        4.00        
   -1
1_480.Probe.asc
24/07/02
09:38:43.00
24/07/02
09:38:43.00
student

200,000000
1
Lambda 365
365K7092207
  / Unknown

480
1
1
0
0
Both on
1
1
1
None
0
0
0
0
 
 
0
0
0
0
0
 
 
 
0
 
0
400
0
 
0
 
 
 
0
0
0
 
0
 
 
 
0
 
 
0
0
0
0
0
 
 
 
 
0
0


0
0
#HDR
-1
-1
#GR
nm
%T
1.0
0.0
1100,000000
-1,000000
901
8
88,415999
0,000774
#DATA
1100,000000	88,093643
1099,000000	88,131907
1098,000000	88,147764
1097,000000	88,166479
1096,000000	88,191623
1095,000000	88,204790
1094,000000	88,232464
1093,000000	88,249859
1092,000000	88,266437
1091,000000	88,286176
1090,000000	88,307923
1089,000000	88,302490
1088,000000	88,315833
1087,000000	88,331744
1086,000000	88,341640
1085,000000	88,343039
1084,000000	88,357205
1083,000000	88,371274
1082,000000	88,378468
1081,000000	88,380081
1080,000000	88,382038
1079,000000	88,395157
1078,000000	88,396883
1077,000000	88,394814
1076,000000	88,395529
1075,000000	88,403337
1074,000000	88,406133
1073,000000	88,407686
1072,000000	88,412417
1071,000000	88,415213
1070,000000	88,411047
1069,000000	88,415999
1068,000000	88,408069
1067,000000	88,408850
1066,000000	88,412612
1065,000000	88,409788
1064,000000	88,406392
1063,000000	88,407070
1062,000000	88,408555
1061,000000	88,407153
1060,000000	88,401817
1059,000000	88,401537
1058,000000	88,405327
1057,000000	88,407371
1056,000000	88,406124
1055,000000	88,402079
1054,000000	88,399364
1053,000000	88,396733
1052,000000	88,396181
1051,000000	88,395868
1050,000000	88,393189
1049,000000	88,384349
1048,000000	88,390633
1047,000000	88,385908
1046,000000	88,377973
1045,000000	88,374997
1044,000000	88,380705
1043,000000	88,375341
1042,000000	88,368879
1041,000000	88,361877
1040,000000	88,355240
1039,000000	88,351316
1038,000000	88,352310
1037,000000	88,343425
1036,000000	88,334074
1035,000000	88,328596
1034,000000	88,323981
1033,000000	88,313867
1032,000000	88,312422
1031,000000	88,309030
1030,000000	88,302921
1029,000000	88,303572
1028,000000	88,294248
1027,000000	88,290355
1026,000000	88,284954
1025,000000	88,279756
1024,000000	88,282913
1023,000000	88,274195
1022,000000	88,273699
1021,000000	88,271580
1020,000000	88,267195
1019,000000	88,265535
1018,000000	88,261468
1017,000000	88,260091
1016,000000	88,258761
1015,000000	88,256783
1014,000000	88,254650
1013,000000	88,254925
1012,000000	88,249264
1011,000000	88,248826
1010,000000	88,251348
1009,000000	88,250140
1008,000000	88,252455
1007,000000	88,243889
1006,000000	88,237611
1005,000000	88,235457
1004,000000	88,235453
1003,000000	88,237054
1002,000000	88,235841
1001,000000	88,233535
1000,000000	88,230395
999,000000	88,226523
998,000000	88,223087
997,000000	88,226760
996,000000	88,225271
995,000000	88,220154
994,000000	88,215846
993,000000	88,216083
992,000000	88,209899
991,000000	88,207047
990,000000	88,206752
989,000000	88,205550
988,000000	88,196890
987,000000	88,194526
986,000000	88,190783
985,000000	88,186858
984,000000	88,183740
983,000000	88,179075
982,000000	88,173828
981,000000	88,169758
980,000000	88,165785
979,000000	88,161545
978,000000	88,158690
977,000000	88,159549
976,000000	88,154667
975,000000	88,148113
974,000000	88,143482
973,000000	88,142252
972,000000	88,137187
971,000000	88,136017
970,000000	88,135833
969,000000	88,134995
968,000000	88,134154
967,000000	88,130915
966,000000	88,127016
965,000000	88,126663
964,000000	88,127897
963,000000	88,122368
962,000000	88,121162
961,000000	88,114042
960,000000	88,109300
959,000000	88,108150
958,000000	88,105870
957,000000	88,103586
956,000000	88,099942
955,000000	88,096724
954,000000	88,094008
953,000000	88,090816
952,000000	88,088761
951,000000	88,085611
950,000000	88,079176
949,000000	88,073595
948,000000	88,074891
947,000000	88,067254
946,000000	88,062449
945,000000	88,059561
944,000000	88,054481
943,000000	88,043369
942,000000	88,037074
941,000000	88,033406
940,000000	88,027820
939,000000	88,021745
938,000000	88,016974
937,000000	88,003696
936,000000	87,997160
935,000000	87,984895
934,000000	87,972041
933,000000	87,965311
932,000000	87,953461
931,000000	87,938620
930,000000	87,915126
929,000000	87,882181
928,000000	87,839125
927,000000	87,779044
926,000000	87,711770
925,000000	87,622072
924,000000	87,518530
923,000000	87,414480
922,000000	87,324065
921,000000	87,242215
920,000000	87,163467
919,000000	87,084820
918,000000	87,006360
917,000000	86,935671
916,000000	86,873019
915,000000	86,822618
914,000000	86,798313
913,000000	86,805661
912,000000	86,834479
911,000000	86,878559
910,000000	86,923648
909,000000	86,966818
908,000000	87,011699
907,000000	87,071623
906,000000	87,126067
905,000000	87,184331
904,000000	87,232755
903,000000	87,267077
902,000000	87,296178
901,000000	87,308813
900,000000	87,313605
899,000000	87,306844
898,000000	87,289197
897,000000	87,266018
896,000000	87,218635
895,000000	87,159198
894,000000	87,091435
893,000000	87,016577
892,000000	86,933568
891,000000	86,832550
890,000000	86,737337
889,000000	86,649842
888,000000	86,574730
887,000000	86,517447
886,000000	86,468495
885,000000	86,439986
884,000000	86,415757
883,000000	86,400580
882,000000	86,410520
881,000000	86,463770
880,000000	86,538291
879,000000	86,627277
878,000000	86,724706
877,000000	86,824453
876,000000	86,923903
875,000000	87,017701
874,000000	87,105621
873,000000	87,186583
872,000000	87,260228
871,000000	87,329405
870,000000	87,387825
869,000000	87,432559
868,000000	87,465232
867,000000	87,490809
866,000000	87,520678
865,000000	87,531121
864,000000	87,546412
863,000000	87,561087
862,000000	87,566635
861,000000	87,566484
860,000000	87,573755
859,000000	87,576389
858,000000	87,577310
857,000000	87,579140
856,000000	87,575980
855,000000	87,574721
854,000000	87,573299
853,000000	87,577086
852,000000	87,584629
851,000000	87,575440
850,000000	87,568803
849,000000	87,570436
848,000000	87,566540
847,000000	87,555519
846,000000	87,563053
845,000000	87,556144
844,000000	87,548804
843,000000	87,542041
842,000000	87,536883
841,000000	87,535614
840,000000	87,526202
839,000000	87,518837
838,000000	87,518367
837,000000	87,520588
836,000000	87,510297
835,000000	87,504136
834,000000	87,493397
833,000000	87,484044
832,000000	87,479398
831,000000	87,479847
830,000000	87,477309
829,000000	87,468907
828,000000	87,462509
827,000000	87,457096
826,000000	87,445200
825,000000	87,441002
824,000000	87,437753
823,000000	87,430605
822,000000	87,421432
821,000000	87,415825
820,000000	87,408100
819,000000	87,403582
818,000000	87,398231
817,000000	87,390415
816,000000	87,380520
815,000000	87,377905
814,000000	87,374118
813,000000	87,368287
812,000000	87,360642
811,000000	87,352840
810,000000	87,354137
809,000000	87,346562
808,000000	87,341784
807,000000	87,333950
806,000000	87,317173
805,000000	87,318138
804,000000	87,311829
803,000000	87,305976
802,000000	87,301962
801,000000	87,298673
800,000000	87,291151
799,000000	87,279618
798,000000	87,277597
797,000000	87,272821
796,000000	87,260262
795,000000	87,257711
794,000000	87,253184
793,000000	87,248530
792,000000	87,241944
791,000000	87,234611
790,000000	87,232079
789,000000	87,224614
788,000000	87,219352
787,000000	87,215350
786,000000	87,209589
785,000000	87,197854
784,000000	87,192574
783,000000	87,178597
782,000000	87,168919
781,000000	87,161650
780,000000	87,147235
779,000000	87,131242
778,000000	87,112703
777,000000	87,096446
776,000000	87,083284
775,000000	87,071627
774,000000	87,054960
773,000000	87,037407
772,000000	87,031438
771,000000	87,029830
770,000000	87,024457
769,000000	87,022513
768,000000	87,021657
767,000000	87,023127
766,000000	87,020534
765,000000	87,012437
764,000000	87,011575
763,000000	86,998613
762,000000	86,991767
761,000000	86,985757
760,000000	86,974525
759,000000	86,953579
758,000000	86,934482
757,000000	86,914526
756,000000	86,899288
755,000000	86,884939
754,000000	86,859158
753,000000	86,855112
752,000000	86,849170
751,000000	86,846663
750,000000	86,847279
749,000000	86,847261
748,000000	86,847921
747,000000	86,855054
746,000000	86,851568
745,000000	86,845107
744,000000	86,848498
743,000000	86,837241
742,000000	86,828630
741,000000	86,818419
740,000000	86,806793
739,000000	86,795813
738,000000	86,790389
737,000000	86,785533
736,000000	86,786813
735,000000	86,789893
734,000000	86,792392
733,000000	86,800837
732,000000	86,803746
731,000000	86,804722
730,000000	86,801171
729,000000	86,794982
728,000000	86,795491
727,000000	86,788142
726,000000	86,779571
725,000000	86,773384
724,000000	86,769938
723,000000	86,766436
722,000000	86,761858
721,000000	86,756154
720,000000	86,745214
719,000000	86,735581
718,000000	86,738330
717,000000	86,735432
716,000000	86,728513
715,000000	86,719565
714,000000	86,709640
713,000000	86,699937
712,000000	86,694726
711,000000	86,688378
710,000000	86,681049
709,000000	86,669704
708,000000	86,654916
707,000000	86,653886
706,000000	86,643558
705,000000	86,634628
704,000000	86,627691
703,000000	86,620651
702,000000	86,608466
701,000000	86,605140
700,000000	86,596822
699,000000	86,590574
698,000000	86,585713
697,000000	86,567869
696,000000	86,569185
695,000000	86,557162
694,000000	86,546621
693,000000	86,539903
692,000000	86,526961
691,000000	86,522641
690,000000	86,514590
689,000000	86,506114
688,000000	86,495544
687,000000	86,479578
686,000000	86,470789
685,000000	86,458916
684,000000	86,445097
683,000000	86,429559
682,000000	86,412158
681,000000	86,391606
680,000000	86,371051
679,000000	86,345611
678,000000	86,308318
677,000000	86,256119
676,000000	86,200650
675,000000	86,125841
674,000000	86,022055
673,000000	85,872524
672,000000	85,647788
671,000000	85,271227
670,000000	84,577095
669,000000	83,535833
668,000000	82,241867
667,000000	80,838596
666,000000	79,530038
665,000000	78,417130
664,000000	77,462784
663,000000	76,832704
662,000000	76,659552
661,000000	76,990747
660,000000	77,421463
659,000000	77,859489
658,000000	78,296067
657,000000	78,621638
656,000000	78,609035
655,000000	78,064302
654,000000	77,068804
653,000000	75,699447
652,000000	74,045508
651,000000	72,203361
650,000000	70,489321
649,000000	69,878896
648,000000	70,034185
647,000000	70,461326
646,000000	70,653416
645,000000	70,821875
644,000000	70,828744
643,000000	70,406745
642,000000	69,376259
641,000000	67,678184
640,000000	65,578915
639,000000	63,986468
638,000000	63,286883
637,000000	63,467984
636,000000	64,398540
635,000000	65,980328
634,000000	68,607460
633,000000	71,795269
632,000000	75,037163
631,000000	77,888144
630,000000	80,025312
629,000000	81,382859
628,000000	82,345777
627,000000	83,041708
626,000000	83,562567
625,000000	83,960970
624,000000	84,270172
623,000000	84,520206
622,000000	84,728167
621,000000	84,908451
620,000000	85,072495
619,000000	85,205568
618,000000	85,318902
617,000000	85,414042
616,000000	85,491632
615,000000	85,551424
614,000000	85,581508
613,000000	85,608780
612,000000	85,619687
611,000000	85,621256
610,000000	85,624018
609,000000	85,627665
608,000000	85,625210
607,000000	85,626640
606,000000	85,632371
605,000000	85,639199
604,000000	85,638879
603,000000	85,627129
602,000000	85,614177
601,000000	85,595438
600,000000	85,570179
599,000000	85,545101
598,000000	85,540441
597,000000	85,539327
596,000000	85,540296
595,000000	85,544259
594,000000	85,553875
593,000000	85,562852
592,000000	85,575588
591,000000	85,584311
590,000000	85,585997
589,000000	85,580998
588,000000	85,572553
587,000000	85,567193
586,000000	85,563427
585,000000	85,557421
584,000000	85,545675
583,000000	85,531608
582,000000	85,530191
581,000000	85,520436
580,000000	85,510291
579,000000	85,506760
578,000000	85,491259
577,000000	85,483141
576,000000	85,474249
575,000000	85,465101
574,000000	85,455263
573,000000	85,440030
572,000000	85,421098
571,000000	85,411611
570,000000	85,401746
569,000000	85,386851
568,000000	85,370686
567,000000	85,349673
566,000000	85,327325
565,000000	85,304073
564,000000	85,281534
563,000000	85,260577
562,000000	85,207342
561,000000	85,155908
560,000000	85,086543
559,000000	84,982744
558,000000	84,824690
557,000000	84,534997
556,000000	83,851684
555,000000	82,623406
554,000000	81,111830
553,000000	79,716035
552,000000	78,799120
551,000000	77,605719
550,000000	76,041010
549,000000	73,901698
548,000000	71,324294
547,000000	69,710853
546,000000	69,443007
545,000000	69,501503
544,000000	69,276514
543,000000	68,145259
542,000000	65,388538
541,000000	61,487875
540,000000	56,046734
539,000000	50,001986
538,000000	44,770053
537,000000	42,134552
536,000000	42,726640
535,000000	47,612776
534,000000	55,189322
533,000000	63,580431
532,000000	70,750335
531,000000	75,164295
530,000000	78,001516
529,000000	79,867592
528,000000	81,100872
527,000000	81,948344
526,000000	82,537270
525,000000	82,987766
524,000000	83,317865
523,000000	83,550375
522,000000	83,714785
521,000000	83,832166
520,000000	83,927964
519,000000	83,991904
518,000000	84,052422
517,000000	84,138306
516,000000	84,254113
515,000000	84,296476
514,000000	84,291281
513,000000	84,263367
512,000000	84,226287
511,000000	84,168085
510,000000	84,117271
509,000000	84,081926
508,000000	84,072595
507,000000	84,090240
506,000000	84,123489
505,000000	84,168117
504,000000	84,176966
503,000000	84,167725
502,000000	84,145148
501,000000	84,101380
500,000000	84,019579
499,000000	83,878727
498,000000	83,660336
497,000000	83,301152
496,000000	82,716715
495,000000	81,822629
494,000000	80,783231
493,000000	79,243841
492,000000	77,421238
491,000000	75,668095
490,000000	73,677388
489,000000	71,701924
488,000000	70,914729
487,000000	70,992611
486,000000	71,092473
485,000000	69,892063
484,000000	69,997835
483,000000	71,847757
482,000000	74,291529
481,000000	76,387237
480,000000	78,305078
479,000000	78,991619
478,000000	77,920922
477,000000	75,469414
476,000000	72,432095
475,000000	70,102419
474,000000	69,263998
473,000000	69,630818
472,000000	70,472850
471,000000	71,411306
470,000000	72,461741
469,000000	71,167612
468,000000	67,941126
467,000000	64,008492
466,000000	58,588964
465,000000	48,808212
464,000000	34,403813
463,000000	24,432199
462,000000	17,078320
461,000000	11,333489
460,000000	8,024429
459,000000	11,721534
458,000000	20,252856
457,000000	26,798510
456,000000	26,064186
455,000000	18,390233
454,000000	12,530318
453,000000	11,425591
452,000000	14,775896
451,000000	20,575326
450,000000	22,734419
449,000000	14,079971
448,000000	6,330450
447,000000	1,979304
446,000000	0,895709
445,000000	0,905413
444,000000	6,228455
443,000000	26,209936
442,000000	46,464316
441,000000	60,290586
440,000000	67,161740
439,000000	71,193466
438,000000	74,206799
437,000000	76,453193
436,000000	77,952026
435,000000	78,768797
434,000000	79,085142
433,000000	79,266160
432,000000	79,567010
431,000000	79,733700
430,000000	79,510447
429,000000	78,683587
428,000000	77,122920
427,000000	74,539284
426,000000	72,008432
425,000000	70,670039
424,000000	71,263777
423,000000	73,510585
422,000000	71,242503
421,000000	65,597600
420,000000	59,024434
419,000000	54,592257
418,000000	55,440856
417,000000	63,099841
416,000000	67,467812
415,000000	69,411961
414,000000	70,807812
413,000000	73,537199
412,000000	76,584452
411,000000	78,434805
410,000000	79,517121
409,000000	80,102701
408,000000	80,430255
407,000000	80,590504
406,000000	80,694513
405,000000	80,724115
404,000000	80,698137
403,000000	80,648275
402,000000	80,610079
401,000000	80,589381
400,000000	80,568562
399,000000	80,469669
398,000000	80,400280
397,000000	80,386135
396,000000	80,292536
395,000000	80,228724
394,000000	79,916381
393,000000	79,265417
392,000000	78,377799
391,000000	77,901150
390,000000	78,191054
389,000000	77,943637
388,000000	76,467421
387,000000	73,523760
386,000000	72,011184
385,000000	73,747023
384,000000	75,522893
383,000000	75,429637
382,000000	72,624399
381,000000	74,627899
380,000000	77,162697
379,000000	78,634590
378,000000	78,923607
377,000000	78,870828
376,000000	79,067175
375,000000	79,181493
374,000000	79,199045
373,000000	78,996323
372,000000	78,356602
371,000000	75,847054
370,000000	72,535402
369,000000	70,096666
368,000000	68,815749
367,000000	67,773522
366,000000	62,932818
365,000000	56,565854
364,000000	49,716551
363,000000	41,293422
362,000000	28,186995
361,000000	13,432516
360,000000	28,324480
359,000000	47,372677
358,000000	61,435904
357,000000	69,010832
356,000000	71,942819
355,000000	73,265194
354,000000	73,482241
353,000000	73,181015
352,000000	72,995180
351,000000	73,278100
350,000000	72,437303
349,000000	70,629091
348,000000	69,190569
347,000000	69,650651
346,000000	70,872369
345,000000	70,502253
344,000000	70,906694
343,000000	71,793965
342,000000	72,216248
341,000000	72,109782
340,000000	72,389068
339,000000	72,349156
338,000000	71,829124
337,000000	70,927362
336,000000	70,114821
335,000000	66,390279
334,000000	63,313686
333,000000	64,551925
332,000000	69,686546
331,000000	71,414111
330,000000	72,804243
329,000000	73,259775
328,000000	73,223292
327,000000	73,016074
326,000000	72,780661
325,000000	72,475295
324,000000	72,049454
323,000000	71,686742
322,000000	71,468785
321,000000	71,390124
320,000000	71,195407
319,000000	70,898762
318,000000	70,561954
317,000000	70,237309
316,000000	69,953105
315,000000	69,625596
314,000000	69,366771
313,000000	69,076559
312,000000	68,768920
311,000000	68,468269
310,000000	68,178379
309,000000	67,866340
308,000000	67,549200
307,000000	67,209176
306,000000	66,846009
305,000000	66,482703
304,000000	66,079544
303,000000	65,597278
302,000000	65,069939
301,000000	64,487939
300,000000	63,802756
299,000000	62,868083
298,000000	61,703067
297,000000	60,401276
296,000000	59,000205
295,000000	57,522619
294,000000	56,052676
293,000000	55,157827
292,000000	52,951440
291,000000	48,759318
290,000000	43,887158
289,000000	45,423483
288,000000	35,885782
287,000000	41,674481
286,000000	51,267680
285,000000	54,540172
284,000000	54,199062
283,000000	52,918851
282,000000	50,620493
281,000000	44,970242
280,000000	35,880731
279,000000	32,814835
278,000000	41,315048
277,000000	45,553521
276,000000	46,042208
275,000000	45,845376
274,000000	45,829152
273,000000	45,817825
272,000000	45,455404
271,000000	44,828804
270,000000	44,173806
269,000000	43,848088
268,000000	43,087907
267,000000	42,163274
266,000000	41,037639
265,000000	39,698856
264,000000	38,094018
263,000000	35,171885
262,000000	34,420000
261,000000	33,844135
260,000000	33,576090
259,000000	34,046063
258,000000	33,379664
257,000000	32,347337
256,000000	31,135266
255,000000	29,827400
254,000000	28,415580
253,000000	26,683841
252,000000	24,164215
251,000000	21,952652
250,000000	20,308475
249,000000	19,024030
248,000000	17,395800
247,000000	15,177853
246,000000	12,864653
245,000000	10,394197
244,000000	7,780993
243,000000	5,138281
242,000000	2,599916
241,000000	1,875336
240,000000	1,475436
239,000000	0,840222
238,000000	0,356087
237,000000	0,138691
236,000000	0,034297
235,000000	0,000789
234,000000	0,000782
233,000000	0,000774
232,000000	0,000792
231,000000	0,000840
230,000000	0,000835
229,000000	0,000814
228,000000	0,000844
227,000000	0,000853
226,000000	0,000871
225,000000	0,000873
224,000000	0,000880
223,000000	0,000911
222,000000	0,000912
221,000000	0,000953
220,000000	0,000977
219,000000	0,000981
218,000000	0,000991
217,000000	0,001079
216,000000	0,001087
215,000000	0,001101
214,000000	0,001123
213,000000	0,001148
212,000000	0,001162
211,000000	0,001261
210,000000	0,001305
209,000000	0,001368
208,000000	0,001455
207,000000	0,001483
206,000000	0,001594
205,000000	0,001641
204,000000	0,001698
203,000000	0,001786
202,000000	0,001905
201,000000	0,002123
200,000000	0,002271
