PE UV       SUBTECH     SPECTRUM    ASCII       PEDS        4.00        
   -1
interference30.asc
24/07/02
12:02:31.00
24/07/02
12:02:31.00
student

200,000000
1
Lambda 365
365K7092207
  / Unknown

480
1
0,5
0
0
Both on
1
1
1
None
0
0
0
0
 
 
0
0
0
0
0
 
 
 
0
 
0
400
0
 
0
 
 
 
0
0
0
 
0
 
 
 
0
 
 
0
0
0
0
0
 
 
 
 
0
0


0
0
#HDR
-1
-1
#GR
nm
%T
1.0
0.0
1100,000000
-1,000000
901
8
23,738209
0,000461
#DATA
1100,000000	14,771672
1099,000000	15,372994
1098,000000	16,032343
1097,000000	16,753762
1096,000000	17,518934
1095,000000	18,287394
1094,000000	19,066342
1093,000000	19,770384
1092,000000	20,360339
1091,000000	20,806774
1090,000000	21,088544
1089,000000	21,165318
1088,000000	21,073028
1087,000000	20,824783
1086,000000	20,430285
1085,000000	19,899385
1084,000000	19,207641
1083,000000	18,384213
1082,000000	17,449249
1081,000000	16,414452
1080,000000	15,291048
1079,000000	14,086923
1078,000000	12,851603
1077,000000	11,634034
1076,000000	10,479526
1075,000000	9,424611
1074,000000	8,441832
1073,000000	7,610466
1072,000000	6,880087
1071,000000	6,241239
1070,000000	5,693071
1069,000000	5,232591
1068,000000	4,815941
1067,000000	4,430870
1066,000000	4,071334
1065,000000	3,730104
1064,000000	3,386696
1063,000000	3,066939
1062,000000	2,745163
1061,000000	2,427996
1060,000000	2,125218
1059,000000	1,834156
1058,000000	1,555451
1057,000000	1,315585
1056,000000	1,107305
1055,000000	0,925129
1054,000000	0,789861
1053,000000	0,680959
1052,000000	0,588511
1051,000000	0,510814
1050,000000	0,444512
1049,000000	0,380851
1048,000000	0,331983
1047,000000	0,294974
1046,000000	0,263519
1045,000000	0,235681
1044,000000	0,218938
1043,000000	0,196947
1042,000000	0,175443
1041,000000	0,154751
1040,000000	0,136013
1039,000000	0,122371
1038,000000	0,114704
1037,000000	0,107479
1036,000000	0,100501
1035,000000	0,093744
1034,000000	0,087154
1033,000000	0,075553
1032,000000	0,068051
1031,000000	0,062081
1030,000000	0,057527
1029,000000	0,056887
1028,000000	0,046225
1027,000000	0,047110
1026,000000	0,046513
1025,000000	0,039884
1024,000000	0,030058
1023,000000	0,029785
1022,000000	0,029524
1021,000000	0,026771
1020,000000	0,023227
1019,000000	0,022859
1018,000000	0,018099
1017,000000	0,013409
1016,000000	0,011283
1015,000000	0,012585
1014,000000	0,016436
1013,000000	0,011892
1012,000000	0,011008
1011,000000	0,008442
1010,000000	0,005447
1009,000000	0,005421
1008,000000	0,005399
1007,000000	0,005378
1006,000000	0,005358
1005,000000	0,005341
1004,000000	0,005326
1003,000000	0,005312
1002,000000	0,002063
1001,000000	0,000553
1000,000000	0,000540
999,000000	0,000562
998,000000	0,000532
997,000000	0,000531
996,000000	0,000534
995,000000	0,000541
994,000000	0,000554
993,000000	0,000552
992,000000	0,000552
991,000000	0,000541
990,000000	0,000529
989,000000	0,000527
988,000000	0,000536
987,000000	0,000562
986,000000	0,000559
985,000000	0,000555
984,000000	0,000565
983,000000	0,000550
982,000000	0,000551
981,000000	0,000539
980,000000	0,000528
979,000000	0,000530
978,000000	0,000545
977,000000	0,000568
976,000000	0,000555
975,000000	0,000540
974,000000	0,000542
973,000000	0,000554
972,000000	0,000558
971,000000	0,000553
970,000000	0,000562
969,000000	0,000577
968,000000	0,000550
967,000000	0,000582
966,000000	0,000571
965,000000	0,000563
964,000000	0,000567
963,000000	0,000548
962,000000	0,000555
961,000000	0,000557
960,000000	0,000578
959,000000	0,000599
958,000000	0,000569
957,000000	0,000568
956,000000	0,000587
955,000000	0,000587
954,000000	0,000578
953,000000	0,000602
952,000000	0,000608
951,000000	0,000602
950,000000	0,000593
949,000000	0,000598
948,000000	0,000633
947,000000	0,000612
946,000000	0,000598
945,000000	0,000603
944,000000	0,000628
943,000000	0,000656
942,000000	0,000622
941,000000	0,000643
940,000000	0,000653
939,000000	0,000647
938,000000	0,000643
937,000000	0,000673
936,000000	0,000663
935,000000	0,000665
934,000000	0,000673
933,000000	0,000673
932,000000	0,000687
931,000000	0,000695
930,000000	0,000681
929,000000	0,000678
928,000000	0,000707
927,000000	0,000706
926,000000	0,000705
925,000000	0,000714
924,000000	0,000718
923,000000	0,000704
922,000000	0,000677
921,000000	0,000709
920,000000	0,000738
919,000000	0,000735
918,000000	0,000702
917,000000	0,000702
916,000000	0,000726
915,000000	0,000749
914,000000	0,000759
913,000000	0,000753
912,000000	0,000732
911,000000	0,000767
910,000000	0,000762
909,000000	0,000747
908,000000	0,000755
907,000000	0,000806
906,000000	0,000786
905,000000	0,000774
904,000000	0,000790
903,000000	0,000823
902,000000	0,000820
901,000000	0,000840
900,000000	0,000849
899,000000	0,000862
898,000000	0,000867
897,000000	0,000825
896,000000	0,000825
895,000000	0,000833
894,000000	0,000862
893,000000	0,000903
892,000000	0,000923
891,000000	0,000919
890,000000	0,000923
889,000000	0,000914
888,000000	0,000898
887,000000	0,000900
886,000000	0,000903
885,000000	0,000953
884,000000	0,000987
883,000000	0,000980
882,000000	0,000939
881,000000	0,000988
880,000000	0,001010
879,000000	0,000995
878,000000	0,000972
877,000000	0,000979
876,000000	0,000991
875,000000	0,001045
874,000000	0,001051
873,000000	0,001040
872,000000	0,001066
871,000000	0,001037
870,000000	0,001033
869,000000	0,001079
868,000000	0,001108
867,000000	0,001069
866,000000	0,001125
865,000000	0,001128
864,000000	0,001125
863,000000	0,001136
862,000000	0,001164
861,000000	0,001154
860,000000	0,001180
859,000000	0,001210
858,000000	0,001209
857,000000	0,001169
856,000000	0,001152
855,000000	0,001193
854,000000	0,001195
853,000000	0,001184
852,000000	0,001191
851,000000	0,001230
850,000000	0,001255
849,000000	0,001242
848,000000	0,001214
847,000000	0,001210
846,000000	0,001291
845,000000	0,001283
844,000000	0,001275
843,000000	0,001254
842,000000	0,001228
841,000000	0,001243
840,000000	0,001241
839,000000	0,001264
838,000000	0,001281
837,000000	0,001281
836,000000	0,001272
835,000000	0,001328
834,000000	0,001320
833,000000	0,001318
832,000000	0,001336
831,000000	0,001332
830,000000	0,001321
829,000000	0,001323
828,000000	0,001325
827,000000	0,001325
826,000000	0,001332
825,000000	0,001269
824,000000	0,001322
823,000000	0,001342
822,000000	0,001307
821,000000	0,001278
820,000000	0,001337
819,000000	0,001277
818,000000	0,001236
817,000000	0,001245
816,000000	0,001284
815,000000	0,001304
814,000000	0,001274
813,000000	0,001271
812,000000	0,001287
811,000000	0,001286
810,000000	0,001274
809,000000	0,001282
808,000000	0,001286
807,000000	0,001280
806,000000	0,001267
805,000000	0,001287
804,000000	0,001254
803,000000	0,001249
802,000000	0,001245
801,000000	0,001212
800,000000	0,001185
799,000000	0,001202
798,000000	0,001193
797,000000	0,001190
796,000000	0,001202
795,000000	0,001174
794,000000	0,001158
793,000000	0,001164
792,000000	0,001180
791,000000	0,001199
790,000000	0,001221
789,000000	0,001213
788,000000	0,001187
787,000000	0,001147
786,000000	0,001115
785,000000	0,001127
784,000000	0,001116
783,000000	0,001165
782,000000	0,001156
781,000000	0,001104
780,000000	0,001091
779,000000	0,001108
778,000000	0,001093
777,000000	0,001099
776,000000	0,001124
775,000000	0,001141
774,000000	0,001113
773,000000	0,001114
772,000000	0,001128
771,000000	0,001138
770,000000	0,001129
769,000000	0,001087
768,000000	0,001068
767,000000	0,001089
766,000000	0,001108
765,000000	0,001095
764,000000	0,001060
763,000000	0,001059
762,000000	0,001036
761,000000	0,001033
760,000000	0,001052
759,000000	0,001018
758,000000	0,001039
757,000000	0,001020
756,000000	0,001007
755,000000	0,001022
754,000000	0,001053
753,000000	0,001059
752,000000	0,001043
751,000000	0,001035
750,000000	0,001034
749,000000	0,001026
748,000000	0,001049
747,000000	0,001003
746,000000	0,000985
745,000000	0,001005
744,000000	0,001030
743,000000	0,000995
742,000000	0,000983
741,000000	0,000976
740,000000	0,000971
739,000000	0,000978
738,000000	0,001032
737,000000	0,001030
736,000000	0,001003
735,000000	0,000991
734,000000	0,001000
733,000000	0,000948
732,000000	0,000971
731,000000	0,000998
730,000000	0,000981
729,000000	0,000929
728,000000	0,000927
727,000000	0,000934
726,000000	0,000975
725,000000	0,000973
724,000000	0,000929
723,000000	0,000926
722,000000	0,000948
721,000000	0,000943
720,000000	0,000930
719,000000	0,000930
718,000000	0,000956
717,000000	0,000972
716,000000	0,000952
715,000000	0,000928
714,000000	0,000909
713,000000	0,000903
712,000000	0,000962
711,000000	0,000968
710,000000	0,000933
709,000000	0,000918
708,000000	0,000958
707,000000	0,000928
706,000000	0,000941
705,000000	0,000936
704,000000	0,000922
703,000000	0,000913
702,000000	0,000913
701,000000	0,000888
700,000000	0,000916
699,000000	0,000931
698,000000	0,000902
697,000000	0,000863
696,000000	0,000913
695,000000	0,000917
694,000000	0,000901
693,000000	0,000882
692,000000	0,000866
691,000000	0,000852
690,000000	0,000862
689,000000	0,000881
688,000000	0,000875
687,000000	0,000815
686,000000	0,000843
685,000000	0,000836
684,000000	0,000819
683,000000	0,000808
682,000000	0,000806
681,000000	0,000785
680,000000	0,000784
679,000000	0,000772
678,000000	0,000743
677,000000	0,000705
676,000000	0,000693
675,000000	0,000679
674,000000	0,000666
673,000000	0,000647
672,000000	0,000618
671,000000	0,000591
670,000000	0,000579
669,000000	0,000552
668,000000	0,000524
667,000000	0,000499
666,000000	0,000461
665,000000	0,000471
664,000000	0,000501
663,000000	0,000534
662,000000	0,000565
661,000000	0,000605
660,000000	0,000648
659,000000	0,000676
658,000000	0,000722
657,000000	0,000786
656,000000	0,000828
655,000000	0,000860
654,000000	0,000889
653,000000	0,000896
652,000000	0,000896
651,000000	0,000918
650,000000	0,000884
649,000000	0,000872
648,000000	0,000900
647,000000	0,000919
646,000000	0,000872
645,000000	0,000870
644,000000	0,000905
643,000000	0,000904
642,000000	0,000894
641,000000	0,000920
640,000000	0,000938
639,000000	0,000928
638,000000	0,000921
637,000000	0,000933
636,000000	0,000962
635,000000	0,000966
634,000000	0,000914
633,000000	0,000916
632,000000	0,000934
631,000000	0,000930
630,000000	0,000909
629,000000	0,000942
628,000000	0,000942
627,000000	0,000939
626,000000	0,000956
625,000000	0,000992
624,000000	0,000960
623,000000	0,000958
622,000000	0,000948
621,000000	0,000947
620,000000	0,001005
619,000000	0,001013
618,000000	0,001020
617,000000	0,001019
616,000000	0,000997
615,000000	0,000955
614,000000	0,001024
613,000000	0,001039
612,000000	0,001033
611,000000	0,001025
610,000000	0,001022
609,000000	0,000975
608,000000	0,007254
607,000000	0,009686
606,000000	0,013017
605,000000	0,018117
604,000000	0,010280
603,000000	0,024789
602,000000	0,029665
601,000000	0,033484
600,000000	0,043461
599,000000	0,059822
598,000000	0,068340
597,000000	0,076788
596,000000	0,085295
595,000000	0,093868
594,000000	0,102941
593,000000	0,128255
592,000000	0,153794
591,000000	0,179529
590,000000	0,208046
589,000000	0,242672
588,000000	0,277656
587,000000	0,312949
586,000000	0,368748
585,000000	0,439225
584,000000	0,511377
583,000000	0,592340
582,000000	0,704165
581,000000	0,833089
580,000000	0,991713
579,000000	1,192623
578,000000	1,432714
577,000000	1,751861
576,000000	2,143205
575,000000	2,631639
574,000000	3,236075
573,000000	3,967505
572,000000	4,901675
571,000000	6,022274
570,000000	7,334014
569,000000	8,822354
568,000000	10,455568
567,000000	12,193126
566,000000	13,923682
565,000000	15,595004
564,000000	17,138883
563,000000	18,480269
562,000000	19,592554
561,000000	20,525527
560,000000	21,322308
559,000000	22,000940
558,000000	22,573484
557,000000	23,041587
556,000000	23,392881
555,000000	23,639333
554,000000	23,738209
553,000000	23,631369
552,000000	23,225074
551,000000	22,437016
550,000000	21,234034
549,000000	19,734915
548,000000	18,001654
547,000000	16,047733
546,000000	13,991837
545,000000	11,940901
544,000000	9,979051
543,000000	8,169571
542,000000	6,548087
541,000000	5,186167
540,000000	4,003599
539,000000	3,003758
538,000000	2,182636
537,000000	1,526547
536,000000	1,036985
535,000000	0,670571
534,000000	0,397216
533,000000	0,206223
532,000000	0,095770
531,000000	0,027354
530,000000	0,005982
529,000000	0,001509
528,000000	0,001520
527,000000	0,001610
526,000000	0,001622
525,000000	0,001607
524,000000	0,001620
523,000000	0,001607
522,000000	0,001536
521,000000	0,001644
520,000000	0,001636
519,000000	0,001670
518,000000	0,001702
517,000000	0,001677
516,000000	0,001626
515,000000	0,001696
514,000000	0,001710
513,000000	0,001675
512,000000	0,001645
511,000000	0,001718
510,000000	0,001773
509,000000	0,001758
508,000000	0,001777
507,000000	0,001833
506,000000	0,001793
505,000000	0,001769
504,000000	0,001831
503,000000	0,001867
502,000000	0,001866
501,000000	0,001911
500,000000	0,001897
499,000000	0,001840
498,000000	0,001799
497,000000	0,001800
496,000000	0,001848
495,000000	0,001937
494,000000	0,001949
493,000000	0,001966
492,000000	0,001972
491,000000	0,001924
490,000000	0,001880
489,000000	0,001958
488,000000	0,001964
487,000000	0,001931
486,000000	0,001931
485,000000	0,001954
484,000000	0,001850
483,000000	0,001831
482,000000	0,001835
481,000000	0,001810
480,000000	0,001835
479,000000	0,001829
478,000000	0,001789
477,000000	0,001768
476,000000	0,001773
475,000000	0,001744
474,000000	0,001784
473,000000	0,001832
472,000000	0,001861
471,000000	0,001880
470,000000	0,001937
469,000000	0,001949
468,000000	0,002003
467,000000	0,002056
466,000000	0,002121
465,000000	0,002269
464,000000	0,002305
463,000000	0,002413
462,000000	0,002521
461,000000	0,002599
460,000000	0,002698
459,000000	0,002688
458,000000	0,002847
457,000000	0,002968
456,000000	0,002922
455,000000	0,002969
454,000000	0,003185
453,000000	0,003248
452,000000	0,003213
451,000000	0,003222
450,000000	0,003429
449,000000	0,003529
448,000000	0,003429
447,000000	0,003401
446,000000	0,003564
445,000000	0,003704
444,000000	0,003595
443,000000	0,003657
442,000000	0,003718
441,000000	0,003756
440,000000	0,003834
439,000000	0,003933
438,000000	0,004076
437,000000	0,003968
436,000000	0,003923
435,000000	0,004137
434,000000	0,004295
433,000000	0,004102
432,000000	0,004154
431,000000	0,004295
430,000000	0,004426
429,000000	0,004523
428,000000	0,004607
427,000000	0,004596
426,000000	0,004692
425,000000	0,004804
424,000000	0,004811
423,000000	0,004740
422,000000	0,004789
421,000000	0,004893
420,000000	0,004982
419,000000	0,004983
418,000000	0,004854
417,000000	0,004924
416,000000	0,005066
415,000000	0,005136
414,000000	0,005053
413,000000	0,004838
412,000000	0,004989
411,000000	0,005068
410,000000	0,005194
409,000000	0,005433
408,000000	0,005740
407,000000	0,005620
406,000000	0,005984
405,000000	0,006170
404,000000	0,006331
403,000000	0,006629
402,000000	0,006744
401,000000	0,007203
400,000000	0,013008
399,000000	0,037894
398,000000	0,038272
397,000000	0,042076
396,000000	0,040491
395,000000	0,040691
394,000000	0,040154
393,000000	0,038856
392,000000	0,040554
391,000000	0,042070
390,000000	0,042150
389,000000	0,039568
388,000000	0,036674
387,000000	0,038053
386,000000	0,038711
385,000000	0,038778
384,000000	0,039145
383,000000	0,039126
382,000000	0,036971
381,000000	0,038033
380,000000	0,036809
379,000000	0,035807
378,000000	0,036045
377,000000	0,037639
376,000000	0,038334
375,000000	0,038169
374,000000	0,037780
373,000000	0,037678
372,000000	0,038247
371,000000	0,037616
370,000000	0,035307
369,000000	0,033581
368,000000	0,033169
367,000000	0,033529
366,000000	0,033317
365,000000	0,034170
364,000000	0,033952
363,000000	0,032759
362,000000	0,032803
361,000000	0,031609
360,000000	0,028984
359,000000	0,027193
358,000000	0,026230
357,000000	0,025137
356,000000	0,024502
355,000000	0,024934
354,000000	0,024683
353,000000	0,023790
352,000000	0,023314
351,000000	0,022387
350,000000	0,021735
349,000000	0,022075
348,000000	0,022627
347,000000	0,022151
346,000000	0,021256
345,000000	0,020644
344,000000	0,019722
343,000000	0,019320
342,000000	0,020013
341,000000	0,019016
340,000000	0,018406
339,000000	0,018044
338,000000	0,017763
337,000000	0,017515
336,000000	0,017635
335,000000	0,016940
334,000000	0,016291
333,000000	0,016308
332,000000	0,016732
331,000000	0,015842
330,000000	0,016091
329,000000	0,015421
328,000000	0,014958
327,000000	0,015007
326,000000	0,014925
325,000000	0,013959
324,000000	0,013324
323,000000	0,013189
322,000000	0,013301
321,000000	0,013209
320,000000	0,012861
319,000000	0,012954
318,000000	0,012468
317,000000	0,011903
316,000000	0,011866
315,000000	0,011329
314,000000	0,011516
313,000000	0,011080
312,000000	0,010451
311,000000	0,010083
310,000000	0,009820
309,000000	0,009875
308,000000	0,009729
307,000000	0,009459
306,000000	0,009268
305,000000	0,009460
304,000000	0,009152
303,000000	0,009142
302,000000	0,008953
301,000000	0,008758
300,000000	0,009141
299,000000	0,008677
298,000000	0,008433
297,000000	0,008551
296,000000	0,008710
295,000000	0,008524
294,000000	0,008620
293,000000	0,008353
292,000000	0,008521
291,000000	0,008750
290,000000	0,008585
289,000000	0,008311
288,000000	0,008480
287,000000	0,008364
286,000000	0,008098
285,000000	0,007894
284,000000	0,007957
283,000000	0,007866
282,000000	0,007960
281,000000	0,007957
280,000000	0,007691
279,000000	0,007756
278,000000	0,007474
277,000000	0,007584
276,000000	0,007694
275,000000	0,007422
274,000000	0,007009
273,000000	0,006963
272,000000	0,006793
271,000000	0,006811
270,000000	0,006995
269,000000	0,006819
268,000000	0,006258
267,000000	0,005910
266,000000	0,005822
265,000000	0,005750
264,000000	0,005352
263,000000	0,005446
262,000000	0,005298
261,000000	0,005041
260,000000	0,004821
259,000000	0,004723
258,000000	0,004515
257,000000	0,004538
256,000000	0,004441
255,000000	0,004376
254,000000	0,004388
253,000000	0,004052
252,000000	0,004106
251,000000	0,004041
250,000000	0,003976
249,000000	0,003905
248,000000	0,003606
247,000000	0,003671
246,000000	0,003546
245,000000	0,003431
244,000000	0,003382
243,000000	0,003270
242,000000	0,003413
241,000000	0,003247
240,000000	0,003155
239,000000	0,003241
238,000000	0,003319
237,000000	0,003178
236,000000	0,003111
235,000000	0,003162
234,000000	0,003229
233,000000	0,003151
232,000000	0,003255
231,000000	0,003230
230,000000	0,003265
229,000000	0,003334
228,000000	0,003345
227,000000	0,003380
226,000000	0,003442
225,000000	0,003463
224,000000	0,003556
223,000000	0,003786
222,000000	0,003849
221,000000	0,003727
220,000000	0,003834
219,000000	0,003970
218,000000	0,004009
217,000000	0,004248
216,000000	0,004301
215,000000	0,004239
214,000000	0,004246
213,000000	0,004434
212,000000	0,004771
211,000000	0,004840
210,000000	0,004922
209,000000	0,005281
208,000000	0,005722
207,000000	0,005577
206,000000	0,006221
205,000000	0,006813
204,000000	0,007143
203,000000	0,007265
202,000000	0,007542
201,000000	0,008698
200,000000	0,008908
