PE UV       SUBTECH     SPECTRUM    ASCII       PEDS        4.00        
   -1
quartz_empty.asc
24/07/02
10:02:59.00
24/07/02
10:02:59.00
student

200,000000
1
Lambda 365
365K7092207
  / Unknown

480
1
0,5
0
0
Both on
1
1
1
None
0
0
0
0
 
 
0
0
0
0
0
 
 
 
0
 
0
400
0
 
0
 
 
 
0
0
0
 
0
 
 
 
0
 
 
0
0
0
0
0
 
 
 
 
0
0


0
0
#HDR
-1
-1
#GR
nm
%T
1.0
0.0
1100,000000
-1,000000
901
8
87,682189
58,814151
#DATA
1100,000000	87,682189
1099,000000	87,578401
1098,000000	87,626257
1097,000000	87,643512
1096,000000	87,603643
1095,000000	87,638230
1094,000000	87,635701
1093,000000	87,599741
1092,000000	87,625629
1091,000000	87,671052
1090,000000	87,593553
1089,000000	87,645712
1088,000000	87,620381
1087,000000	87,625638
1086,000000	87,660203
1085,000000	87,656169
1084,000000	87,623626
1083,000000	87,666428
1082,000000	87,640671
1081,000000	87,583350
1080,000000	87,605129
1079,000000	87,562178
1078,000000	87,633375
1077,000000	87,667517
1076,000000	87,631350
1075,000000	87,560177
1074,000000	87,661388
1073,000000	87,579505
1072,000000	87,590564
1071,000000	87,642880
1070,000000	87,610210
1069,000000	87,587712
1068,000000	87,660013
1067,000000	87,627993
1066,000000	87,570991
1065,000000	87,594116
1064,000000	87,575411
1063,000000	87,569951
1062,000000	87,583941
1061,000000	87,571262
1060,000000	87,525285
1059,000000	87,632854
1058,000000	87,578350
1057,000000	87,559099
1056,000000	87,582139
1055,000000	87,607591
1054,000000	87,543183
1053,000000	87,581952
1052,000000	87,580141
1051,000000	87,555522
1050,000000	87,552451
1049,000000	87,637115
1048,000000	87,547532
1047,000000	87,540014
1046,000000	87,561386
1045,000000	87,552723
1044,000000	87,493200
1043,000000	87,573262
1042,000000	87,565797
1041,000000	87,533602
1040,000000	87,535197
1039,000000	87,598031
1038,000000	87,510950
1037,000000	87,509723
1036,000000	87,537027
1035,000000	87,540581
1034,000000	87,487545
1033,000000	87,564988
1032,000000	87,553640
1031,000000	87,509615
1030,000000	87,494477
1029,000000	87,568566
1028,000000	87,488552
1027,000000	87,507467
1026,000000	87,539230
1025,000000	87,531853
1024,000000	87,467377
1023,000000	87,525325
1022,000000	87,534435
1021,000000	87,494681
1020,000000	87,463783
1019,000000	87,524716
1018,000000	87,483764
1017,000000	87,460103
1016,000000	87,496542
1015,000000	87,534088
1014,000000	87,474780
1013,000000	87,437179
1012,000000	87,478585
1011,000000	87,479572
1010,000000	87,447366
1009,000000	87,443585
1008,000000	87,523401
1007,000000	87,487332
1006,000000	87,434358
1005,000000	87,427802
1004,000000	87,489491
1003,000000	87,441681
1002,000000	87,414078
1001,000000	87,455647
1000,000000	87,489812
999,000000	87,439077
998,000000	87,402484
997,000000	87,445864
996,000000	87,438937
995,000000	87,403946
994,000000	87,395254
993,000000	87,464106
992,000000	87,452594
991,000000	87,410015
990,000000	87,398552
989,000000	87,440478
988,000000	87,426197
987,000000	87,374823
986,000000	87,400188
985,000000	87,442242
984,000000	87,437755
983,000000	87,368995
982,000000	87,361519
981,000000	87,393379
980,000000	87,412110
979,000000	87,389421
978,000000	87,349907
977,000000	87,390522
976,000000	87,421490
975,000000	87,402111
974,000000	87,344180
973,000000	87,338565
972,000000	87,389482
971,000000	87,380863
970,000000	87,344769
969,000000	87,329470
968,000000	87,396864
967,000000	87,405057
966,000000	87,357978
965,000000	87,319070
964,000000	87,324237
963,000000	87,377759
962,000000	87,346988
961,000000	87,315601
960,000000	87,311375
959,000000	87,332052
958,000000	87,348328
957,000000	87,305300
956,000000	87,274142
955,000000	87,297368
954,000000	87,339141
953,000000	87,315041
952,000000	87,262502
951,000000	87,229471
950,000000	87,251338
949,000000	87,293614
948,000000	87,287417
947,000000	87,230578
946,000000	87,201545
945,000000	87,214683
944,000000	87,249341
943,000000	87,266930
942,000000	87,233305
941,000000	87,221410
940,000000	87,237760
939,000000	87,276380
938,000000	87,317902
937,000000	87,291803
936,000000	87,256971
935,000000	87,234300
934,000000	87,254987
933,000000	87,327795
932,000000	87,337499
931,000000	87,301243
930,000000	87,256991
929,000000	87,251385
928,000000	87,303375
927,000000	87,316632
926,000000	87,301205
925,000000	87,267123
924,000000	87,254068
923,000000	87,284818
922,000000	87,314077
921,000000	87,307879
920,000000	87,275841
919,000000	87,244102
918,000000	87,234715
917,000000	87,254733
916,000000	87,278657
915,000000	87,287811
914,000000	87,280170
913,000000	87,258306
912,000000	87,229745
911,000000	87,196794
910,000000	87,217170
909,000000	87,246050
908,000000	87,254294
907,000000	87,248525
906,000000	87,231699
905,000000	87,211541
904,000000	87,192636
903,000000	87,187795
902,000000	87,220862
901,000000	87,262705
900,000000	87,258032
899,000000	87,239252
898,000000	87,212399
897,000000	87,155229
896,000000	87,175035
895,000000	87,218974
894,000000	87,249348
893,000000	87,251680
892,000000	87,231582
891,000000	87,181435
890,000000	87,157608
889,000000	87,152769
888,000000	87,163278
887,000000	87,187857
886,000000	87,240714
885,000000	87,248097
884,000000	87,215170
883,000000	87,171675
882,000000	87,155260
881,000000	87,108525
880,000000	87,139389
879,000000	87,145388
878,000000	87,132416
877,000000	87,146138
876,000000	87,163571
875,000000	87,177710
874,000000	87,190639
873,000000	87,190066
872,000000	87,165380
871,000000	87,147987
870,000000	87,116261
869,000000	87,103348
868,000000	87,101262
867,000000	87,094894
866,000000	87,093219
865,000000	87,133732
864,000000	87,146006
863,000000	87,142360
862,000000	87,147322
861,000000	87,162621
860,000000	87,120629
859,000000	87,080040
858,000000	87,066389
857,000000	87,083156
856,000000	87,083826
855,000000	87,066630
854,000000	87,082361
853,000000	87,096372
852,000000	87,090745
851,000000	87,114242
850,000000	87,124543
849,000000	87,128035
848,000000	87,112767
847,000000	87,089742
846,000000	87,118069
845,000000	87,125958
844,000000	87,130278
843,000000	87,116422
842,000000	87,087136
841,000000	87,074718
840,000000	87,093126
839,000000	87,098933
838,000000	87,090257
837,000000	87,065331
836,000000	87,020676
835,000000	87,025943
834,000000	87,021020
833,000000	87,027649
832,000000	87,035767
831,000000	87,003991
830,000000	86,986381
829,000000	86,984588
828,000000	86,993186
827,000000	86,996986
826,000000	86,975539
825,000000	86,987058
824,000000	86,985954
823,000000	86,996474
822,000000	87,014270
821,000000	87,016962
820,000000	86,988543
819,000000	86,994034
818,000000	87,002249
817,000000	86,994385
816,000000	86,963540
815,000000	86,969729
814,000000	86,962060
813,000000	86,958292
812,000000	86,967447
811,000000	86,989307
810,000000	86,977412
809,000000	86,954252
808,000000	86,963141
807,000000	86,979683
806,000000	86,971566
805,000000	86,993001
804,000000	86,983315
803,000000	86,971637
802,000000	86,982039
801,000000	87,018061
800,000000	87,018192
799,000000	86,987537
798,000000	86,968190
797,000000	86,964074
796,000000	86,966275
795,000000	86,949312
794,000000	86,927297
793,000000	86,888839
792,000000	86,886179
791,000000	86,915217
790,000000	86,889350
789,000000	86,895333
788,000000	86,879633
787,000000	86,872423
786,000000	86,884978
785,000000	86,909600
784,000000	86,942298
783,000000	86,932682
782,000000	86,914823
781,000000	86,903031
780,000000	86,896831
779,000000	86,861110
778,000000	86,835387
777,000000	86,828413
776,000000	86,837168
775,000000	86,853526
774,000000	86,870340
773,000000	86,851784
772,000000	86,858665
771,000000	86,860484
770,000000	86,825854
769,000000	86,801603
768,000000	86,802392
767,000000	86,824371
766,000000	86,848600
765,000000	86,853646
764,000000	86,816549
763,000000	86,796140
762,000000	86,786321
761,000000	86,785300
760,000000	86,786040
759,000000	86,773399
758,000000	86,786872
757,000000	86,816951
756,000000	86,828096
755,000000	86,801352
754,000000	86,737687
753,000000	86,742807
752,000000	86,753341
751,000000	86,773615
750,000000	86,781356
749,000000	86,744523
748,000000	86,737407
747,000000	86,720876
746,000000	86,723950
745,000000	86,741244
744,000000	86,752145
743,000000	86,733259
742,000000	86,692393
741,000000	86,689398
740,000000	86,714514
739,000000	86,736924
738,000000	86,717392
737,000000	86,671339
736,000000	86,682055
735,000000	86,712241
734,000000	86,718037
733,000000	86,685010
732,000000	86,631971
731,000000	86,659813
730,000000	86,697559
729,000000	86,693533
728,000000	86,647834
727,000000	86,648657
726,000000	86,668498
725,000000	86,679802
724,000000	86,665025
723,000000	86,619344
722,000000	86,626028
721,000000	86,659966
720,000000	86,657689
719,000000	86,625195
718,000000	86,612340
717,000000	86,650011
716,000000	86,651292
715,000000	86,611296
714,000000	86,591261
713,000000	86,645907
712,000000	86,607258
711,000000	86,571829
710,000000	86,589761
709,000000	86,610079
708,000000	86,583898
707,000000	86,567769
706,000000	86,594541
705,000000	86,576823
704,000000	86,566986
703,000000	86,592883
702,000000	86,575896
701,000000	86,536348
700,000000	86,547060
699,000000	86,556830
698,000000	86,542949
697,000000	86,538622
696,000000	86,548041
695,000000	86,521093
694,000000	86,518469
693,000000	86,535350
692,000000	86,505548
691,000000	86,497760
690,000000	86,518086
689,000000	86,507802
688,000000	86,483768
687,000000	86,499896
686,000000	86,499000
685,000000	86,473258
684,000000	86,475403
683,000000	86,478639
682,000000	86,444353
681,000000	86,450030
680,000000	86,432858
679,000000	86,451710
678,000000	86,462800
677,000000	86,429160
676,000000	86,439741
675,000000	86,426526
674,000000	86,425258
673,000000	86,428442
672,000000	86,431200
671,000000	86,453202
670,000000	86,408261
669,000000	86,411594
668,000000	86,418297
667,000000	86,403817
666,000000	86,399606
665,000000	86,401119
664,000000	86,402836
663,000000	86,402694
662,000000	86,398683
661,000000	86,389328
660,000000	86,384458
659,000000	86,364019
658,000000	86,355299
657,000000	86,354598
656,000000	86,316409
655,000000	86,331484
654,000000	86,312564
653,000000	86,307514
652,000000	86,316905
651,000000	86,310306
650,000000	86,303526
649,000000	86,305889
648,000000	86,302434
647,000000	86,291996
646,000000	86,281137
645,000000	86,286182
644,000000	86,269101
643,000000	86,251802
642,000000	86,245159
641,000000	86,252351
640,000000	86,255622
639,000000	86,244706
638,000000	86,245745
637,000000	86,242314
636,000000	86,223356
635,000000	86,218417
634,000000	86,239005
633,000000	86,223783
632,000000	86,195222
631,000000	86,177748
630,000000	86,182848
629,000000	86,197634
628,000000	86,188045
627,000000	86,175955
626,000000	86,172098
625,000000	86,171159
624,000000	86,143980
623,000000	86,133351
622,000000	86,139535
621,000000	86,151380
620,000000	86,150231
619,000000	86,130628
618,000000	86,132370
617,000000	86,126718
616,000000	86,120313
615,000000	86,127999
614,000000	86,107078
613,000000	86,088840
612,000000	86,071324
611,000000	86,062837
610,000000	86,068403
609,000000	86,069268
608,000000	86,062063
607,000000	86,066094
606,000000	86,069465
605,000000	86,060072
604,000000	86,037110
603,000000	86,020369
602,000000	86,008748
601,000000	86,004399
600,000000	86,006748
599,000000	86,010952
598,000000	86,031703
597,000000	86,014303
596,000000	85,990107
595,000000	85,975521
594,000000	85,969360
593,000000	85,956689
592,000000	85,947744
591,000000	85,937096
590,000000	85,925468
589,000000	85,918617
588,000000	85,937142
587,000000	85,931056
586,000000	85,924481
585,000000	85,917505
584,000000	85,903557
583,000000	85,888462
582,000000	85,870323
581,000000	85,864436
580,000000	85,862844
579,000000	85,858892
578,000000	85,869457
577,000000	85,839559
576,000000	85,846178
575,000000	85,857350
574,000000	85,850472
573,000000	85,849897
572,000000	85,833003
571,000000	85,828379
570,000000	85,822934
569,000000	85,811930
568,000000	85,804341
567,000000	85,788571
566,000000	85,778341
565,000000	85,766601
564,000000	85,753699
563,000000	85,745794
562,000000	85,740346
561,000000	85,763366
560,000000	85,760570
559,000000	85,731858
558,000000	85,704368
557,000000	85,693587
556,000000	85,696562
555,000000	85,695639
554,000000	85,690416
553,000000	85,682005
552,000000	85,652416
551,000000	85,646875
550,000000	85,647985
549,000000	85,643924
548,000000	85,627497
547,000000	85,600963
546,000000	85,599025
545,000000	85,598449
544,000000	85,593197
543,000000	85,582944
542,000000	85,574473
541,000000	85,566638
540,000000	85,549591
539,000000	85,542742
538,000000	85,548490
537,000000	85,549456
536,000000	85,523351
535,000000	85,530488
534,000000	85,515631
533,000000	85,491462
532,000000	85,512047
531,000000	85,513882
530,000000	85,490899
529,000000	85,473632
528,000000	85,456371
527,000000	85,425163
526,000000	85,438236
525,000000	85,429372
524,000000	85,421163
523,000000	85,418169
522,000000	85,416357
521,000000	85,395598
520,000000	85,386041
519,000000	85,386603
518,000000	85,376189
517,000000	85,348216
516,000000	85,352793
515,000000	85,336091
514,000000	85,349954
513,000000	85,355983
512,000000	85,325791
511,000000	85,270531
510,000000	85,261527
509,000000	85,256882
508,000000	85,260411
507,000000	85,262107
506,000000	85,231115
505,000000	85,236897
504,000000	85,250145
503,000000	85,246537
502,000000	85,223051
501,000000	85,196568
500,000000	85,189747
499,000000	85,182777
498,000000	85,188333
497,000000	85,195312
496,000000	85,179859
495,000000	85,134827
494,000000	85,145618
493,000000	85,133376
492,000000	85,106576
491,000000	85,100495
490,000000	85,105027
489,000000	85,099290
488,000000	85,077597
487,000000	85,059042
486,000000	85,059541
485,000000	85,059678
484,000000	85,010347
483,000000	84,998959
482,000000	84,997344
481,000000	84,979084
480,000000	84,962419
479,000000	84,972886
478,000000	84,967422
477,000000	84,965406
476,000000	84,966091
475,000000	84,929434
474,000000	84,883801
473,000000	84,891354
472,000000	84,899532
471,000000	84,888902
470,000000	84,881605
469,000000	84,846539
468,000000	84,843141
467,000000	84,820998
466,000000	84,785689
465,000000	84,798980
464,000000	84,755512
463,000000	84,750916
462,000000	84,730697
461,000000	84,680821
460,000000	84,665146
459,000000	84,709910
458,000000	84,707827
457,000000	84,669791
456,000000	84,617746
455,000000	84,575700
454,000000	84,571225
453,000000	84,589182
452,000000	84,588478
451,000000	84,544909
450,000000	84,568754
449,000000	84,574258
448,000000	84,546761
447,000000	84,534341
446,000000	84,535486
445,000000	84,458610
444,000000	84,478199
443,000000	84,453687
442,000000	84,430372
441,000000	84,418296
440,000000	84,403808
439,000000	84,371046
438,000000	84,361909
437,000000	84,338684
436,000000	84,306877
435,000000	84,280783
434,000000	84,273232
433,000000	84,243346
432,000000	84,266569
431,000000	84,269058
430,000000	84,238925
429,000000	84,216054
428,000000	84,212704
427,000000	84,171474
426,000000	84,123321
425,000000	84,089156
424,000000	84,087066
423,000000	84,135234
422,000000	84,054760
421,000000	84,057918
420,000000	84,067619
419,000000	84,049655
418,000000	84,027191
417,000000	83,948625
416,000000	83,948406
415,000000	83,944081
414,000000	83,930185
413,000000	83,922651
412,000000	83,891860
411,000000	83,902868
410,000000	83,868881
409,000000	83,827899
408,000000	83,829179
407,000000	83,813139
406,000000	83,729424
405,000000	83,718412
404,000000	83,733686
403,000000	83,712497
402,000000	83,665047
401,000000	83,609674
400,000000	83,435841
399,000000	82,750230
398,000000	82,715716
397,000000	82,500385
396,000000	82,528091
395,000000	82,560784
394,000000	82,598117
393,000000	82,668499
392,000000	82,835510
391,000000	82,764304
390,000000	82,250269
389,000000	82,183483
388,000000	82,428298
387,000000	81,994120
386,000000	82,426942
385,000000	82,379248
384,000000	82,331949
383,000000	82,411624
382,000000	82,477328
381,000000	82,236118
380,000000	82,089187
379,000000	82,021921
378,000000	82,064876
377,000000	82,293016
376,000000	82,120770
375,000000	82,427413
374,000000	82,470916
373,000000	82,250665
372,000000	82,414138
371,000000	81,985480
370,000000	82,269615
369,000000	82,483468
368,000000	82,419003
367,000000	82,359508
366,000000	81,973282
365,000000	82,188099
364,000000	82,317824
363,000000	82,118131
362,000000	81,763969
361,000000	82,025420
360,000000	81,985666
359,000000	82,117561
358,000000	82,334528
357,000000	82,145292
356,000000	81,908501
355,000000	81,724272
354,000000	81,848192
353,000000	82,065672
352,000000	81,924863
351,000000	81,777794
350,000000	81,652058
349,000000	81,783780
348,000000	82,004090
347,000000	81,992032
346,000000	81,667092
345,000000	81,548618
344,000000	81,653799
343,000000	81,771550
342,000000	81,698115
341,000000	81,606942
340,000000	81,725726
339,000000	81,688242
338,000000	81,616107
337,000000	81,634455
336,000000	81,601485
335,000000	81,502350
334,000000	81,584197
333,000000	81,612299
332,000000	81,486187
331,000000	81,426907
330,000000	81,245456
329,000000	81,388135
328,000000	81,532942
327,000000	81,519517
326,000000	81,389248
325,000000	81,374509
324,000000	81,239621
323,000000	81,119200
322,000000	81,093438
321,000000	81,181473
320,000000	81,139202
319,000000	81,210280
318,000000	81,111459
317,000000	81,008746
316,000000	81,080550
315,000000	80,941067
314,000000	80,914110
313,000000	80,814235
312,000000	80,730910
311,000000	80,724578
310,000000	80,685765
309,000000	80,662768
308,000000	80,632832
307,000000	80,589563
306,000000	80,520699
305,000000	80,404216
304,000000	80,283594
303,000000	80,395133
302,000000	80,407851
301,000000	80,305600
300,000000	80,307457
299,000000	80,291239
298,000000	80,109082
297,000000	80,025911
296,000000	80,008147
295,000000	79,928677
294,000000	79,954012
293,000000	79,879724
292,000000	79,760827
291,000000	79,717299
290,000000	79,769443
289,000000	79,530566
288,000000	79,545569
287,000000	79,563497
286,000000	79,479934
285,000000	79,295456
284,000000	79,237495
283,000000	79,165122
282,000000	79,108827
281,000000	79,066495
280,000000	79,027591
279,000000	78,966801
278,000000	78,912171
277,000000	78,829755
276,000000	78,731696
275,000000	78,651792
274,000000	78,656926
273,000000	78,602247
272,000000	78,542343
271,000000	78,450620
270,000000	78,322481
269,000000	78,189553
268,000000	78,177521
267,000000	78,082809
266,000000	77,995238
265,000000	77,926257
264,000000	77,833274
263,000000	77,706643
262,000000	77,627355
261,000000	77,532807
260,000000	77,435759
259,000000	77,360615
258,000000	77,254008
257,000000	77,170042
256,000000	77,036009
255,000000	76,888072
254,000000	76,764970
253,000000	76,664377
252,000000	76,465564
251,000000	76,331497
250,000000	76,194145
249,000000	76,024659
248,000000	75,864242
247,000000	75,698844
246,000000	75,498534
245,000000	75,320931
244,000000	75,162384
243,000000	74,948225
242,000000	74,786365
241,000000	74,534691
240,000000	74,269680
239,000000	74,039692
238,000000	73,858343
237,000000	73,618798
236,000000	73,343056
235,000000	73,089599
234,000000	72,859594
233,000000	72,618974
232,000000	72,353814
231,000000	72,124370
230,000000	71,872670
229,000000	71,622512
228,000000	71,420562
227,000000	71,252671
226,000000	71,062599
225,000000	70,921179
224,000000	70,793925
223,000000	70,630874
222,000000	70,430645
221,000000	70,242287
220,000000	70,046468
219,000000	69,827347
218,000000	69,582485
217,000000	69,339930
216,000000	69,007654
215,000000	68,653143
214,000000	68,293911
213,000000	67,920415
212,000000	67,491176
211,000000	66,959909
210,000000	66,439161
209,000000	65,921489
208,000000	65,343545
207,000000	64,630674
206,000000	63,967940
205,000000	63,206546
204,000000	62,389738
203,000000	61,561046
202,000000	60,608069
201,000000	59,786822
200,000000	58,814151
