PE UV       SUBTECH     SPECTRUM    ASCII       PEDS        4.00        
   -1
quartz_water.asc
24/07/02
10:06:41.00
24/07/02
10:06:41.00
student

200,000000
1
Lambda 365
365K7092207
  / Unknown

480
1
0,5
0
0
Both on
1
1
1
None
0
0
0
0
 
 
0
0
0
0
0
 
 
 
0
 
0
400
0
 
0
 
 
 
0
0
0
 
0
 
 
 
0
 
 
0
0
0
0
0
 
 
 
 
0
0


0
0
#HDR
-1
-1
#GR
nm
%T
1.0
0.0
1100,000000
-1,000000
901
8
92,144849
0,004888
#DATA
1100,000000	77,357961
1099,000000	77,557418
1098,000000	77,795267
1097,000000	78,028365
1096,000000	78,241680
1095,000000	78,449241
1094,000000	78,613503
1093,000000	78,833757
1092,000000	79,049796
1091,000000	79,233201
1090,000000	79,383453
1089,000000	79,585284
1088,000000	79,754035
1087,000000	79,916621
1086,000000	80,073750
1085,000000	80,210880
1084,000000	80,338290
1083,000000	80,452949
1082,000000	80,564744
1081,000000	80,672116
1080,000000	80,767052
1079,000000	80,830134
1078,000000	80,948404
1077,000000	81,005840
1076,000000	81,018787
1075,000000	81,053762
1074,000000	81,131955
1073,000000	81,119231
1072,000000	81,156964
1071,000000	81,202212
1070,000000	81,178508
1069,000000	81,187005
1068,000000	81,158096
1067,000000	81,108250
1066,000000	81,067273
1065,000000	81,049768
1064,000000	80,978594
1063,000000	80,913764
1062,000000	80,837647
1061,000000	80,746702
1060,000000	80,647010
1059,000000	80,568361
1058,000000	80,426949
1057,000000	80,312977
1056,000000	80,209059
1055,000000	80,083503
1054,000000	79,907790
1053,000000	79,740773
1052,000000	79,550991
1051,000000	79,363064
1050,000000	79,191808
1049,000000	79,013020
1048,000000	78,781196
1047,000000	78,563420
1046,000000	78,345787
1045,000000	78,109716
1044,000000	77,838920
1043,000000	77,599196
1042,000000	77,316933
1041,000000	77,030340
1040,000000	76,755297
1039,000000	76,462747
1038,000000	76,136724
1037,000000	75,833105
1036,000000	75,530341
1035,000000	75,214313
1034,000000	74,883537
1033,000000	74,568864
1032,000000	74,209500
1031,000000	73,860451
1030,000000	73,530257
1029,000000	73,179277
1028,000000	72,781116
1027,000000	72,429061
1026,000000	72,063736
1025,000000	71,671331
1024,000000	71,276294
1023,000000	70,914660
1022,000000	70,516513
1021,000000	70,113141
1020,000000	69,720250
1019,000000	69,341084
1018,000000	68,933673
1017,000000	68,530422
1016,000000	68,137011
1015,000000	67,738137
1014,000000	67,313724
1013,000000	66,922365
1012,000000	66,533164
1011,000000	66,133686
1010,000000	65,731399
1009,000000	65,342962
1008,000000	64,990607
1007,000000	64,588277
1006,000000	64,205665
1005,000000	63,851114
1004,000000	63,507686
1003,000000	63,133273
1002,000000	62,785122
1001,000000	62,462618
1000,000000	62,138028
999,000000	61,790300
998,000000	61,472605
997,000000	61,166472
996,000000	60,851930
995,000000	60,541564
994,000000	60,250741
993,000000	59,979138
992,000000	59,695010
991,000000	59,425091
990,000000	59,176897
989,000000	58,944372
988,000000	58,691305
987,000000	58,464535
986,000000	58,264903
985,000000	58,075659
984,000000	57,884456
983,000000	57,696577
982,000000	57,551158
981,000000	57,426446
980,000000	57,307445
979,000000	57,194721
978,000000	57,120289
977,000000	57,075340
976,000000	57,039985
975,000000	57,019911
974,000000	57,022359
973,000000	57,055954
972,000000	57,103601
971,000000	57,150280
970,000000	57,206593
969,000000	57,284301
968,000000	57,396041
967,000000	57,505873
966,000000	57,624915
965,000000	57,781246
964,000000	57,980368
963,000000	58,202193
962,000000	58,496989
961,000000	58,869141
960,000000	59,337966
959,000000	59,909479
958,000000	60,572063
957,000000	61,392547
956,000000	62,337710
955,000000	63,394642
954,000000	64,525415
953,000000	65,673351
952,000000	66,840360
951,000000	67,988737
950,000000	69,100941
949,000000	70,137468
948,000000	71,084008
947,000000	71,973288
946,000000	72,801361
945,000000	73,598455
944,000000	74,361927
943,000000	75,063042
942,000000	75,734950
941,000000	76,391247
940,000000	77,032981
939,000000	77,662626
938,000000	78,282705
937,000000	78,844822
936,000000	79,387353
935,000000	79,913886
934,000000	80,436926
933,000000	80,958744
932,000000	81,426546
931,000000	81,853364
930,000000	82,278719
929,000000	82,700648
928,000000	83,103280
927,000000	83,447107
926,000000	83,775518
925,000000	84,093318
924,000000	84,408060
923,000000	84,716804
922,000000	84,978341
921,000000	85,207810
920,000000	85,401576
919,000000	85,583747
918,000000	85,773455
917,000000	85,966504
916,000000	86,120587
915,000000	86,241090
914,000000	86,352194
913,000000	86,465657
912,000000	86,561572
911,000000	86,647345
910,000000	86,760263
909,000000	86,849588
908,000000	86,903567
907,000000	86,982142
906,000000	87,040249
905,000000	87,098699
904,000000	87,164346
903,000000	87,238591
902,000000	87,316427
901,000000	87,356958
900,000000	87,391697
899,000000	87,435688
898,000000	87,486963
897,000000	87,526420
896,000000	87,579915
895,000000	87,637537
894,000000	87,690753
893,000000	87,733762
892,000000	87,763471
891,000000	87,780014
890,000000	87,831797
889,000000	87,897696
888,000000	87,957839
887,000000	87,996391
886,000000	88,070477
885,000000	88,113384
884,000000	88,147811
883,000000	88,189198
882,000000	88,244162
881,000000	88,250187
880,000000	88,326129
879,000000	88,397173
878,000000	88,451582
877,000000	88,500529
876,000000	88,516842
875,000000	88,556816
874,000000	88,603759
873,000000	88,649743
872,000000	88,689536
871,000000	88,718049
870,000000	88,729257
869,000000	88,754862
868,000000	88,794039
867,000000	88,832648
866,000000	88,836536
865,000000	88,888996
864,000000	88,920275
863,000000	88,934554
862,000000	88,948387
861,000000	88,963647
860,000000	88,982179
859,000000	88,976659
858,000000	88,986274
857,000000	89,035412
856,000000	89,070725
855,000000	89,080875
854,000000	89,114217
853,000000	89,139660
852,000000	89,142564
851,000000	89,171870
850,000000	89,184588
849,000000	89,213923
848,000000	89,241037
847,000000	89,259797
846,000000	89,297699
845,000000	89,297844
844,000000	89,322772
843,000000	89,360390
842,000000	89,391225
841,000000	89,390502
840,000000	89,423831
839,000000	89,455010
838,000000	89,473924
837,000000	89,486252
836,000000	89,516180
835,000000	89,588932
834,000000	89,645694
833,000000	89,737986
832,000000	89,851999
831,000000	89,910001
830,000000	90,047806
829,000000	90,171637
828,000000	90,292139
827,000000	90,404907
826,000000	90,495453
825,000000	90,610147
824,000000	90,672314
823,000000	90,722843
822,000000	90,775382
821,000000	90,826276
820,000000	90,862353
819,000000	90,917562
818,000000	90,958298
817,000000	90,971018
816,000000	90,956845
815,000000	90,962309
814,000000	90,973858
813,000000	90,989058
812,000000	91,006145
811,000000	91,023438
810,000000	91,038972
809,000000	91,022709
808,000000	91,026432
807,000000	91,031266
806,000000	91,009000
805,000000	91,011698
804,000000	90,988634
803,000000	90,987688
802,000000	90,993557
801,000000	90,986602
800,000000	90,980521
799,000000	90,963468
798,000000	90,947782
797,000000	90,929965
796,000000	90,906152
795,000000	90,875534
794,000000	90,857774
793,000000	90,805415
792,000000	90,776731
791,000000	90,778168
790,000000	90,735780
789,000000	90,713385
788,000000	90,683332
787,000000	90,652664
786,000000	90,623795
785,000000	90,595565
784,000000	90,613527
783,000000	90,604062
782,000000	90,573883
781,000000	90,546266
780,000000	90,547289
779,000000	90,519000
778,000000	90,476066
777,000000	90,438905
776,000000	90,406999
775,000000	90,378119
774,000000	90,391984
773,000000	90,375832
772,000000	90,377723
771,000000	90,369183
770,000000	90,325356
769,000000	90,302821
768,000000	90,299075
767,000000	90,286941
766,000000	90,264064
765,000000	90,242446
764,000000	90,259957
763,000000	90,253311
762,000000	90,245503
761,000000	90,239422
760,000000	90,232126
759,000000	90,214033
758,000000	90,198834
757,000000	90,205800
756,000000	90,213637
755,000000	90,208989
754,000000	90,188807
753,000000	90,194660
752,000000	90,171024
751,000000	90,158839
750,000000	90,164002
749,000000	90,169110
748,000000	90,160820
747,000000	90,148923
746,000000	90,152891
745,000000	90,161476
744,000000	90,155013
743,000000	90,146319
742,000000	90,145602
741,000000	90,158945
740,000000	90,186614
739,000000	90,222743
738,000000	90,245552
737,000000	90,266677
736,000000	90,321153
735,000000	90,392076
734,000000	90,467643
733,000000	90,570765
732,000000	90,665676
731,000000	90,772877
730,000000	90,893353
729,000000	91,011371
728,000000	91,087760
727,000000	91,161854
726,000000	91,215513
725,000000	91,278064
724,000000	91,347509
723,000000	91,390500
722,000000	91,422394
721,000000	91,487009
720,000000	91,544900
719,000000	91,587473
718,000000	91,625736
717,000000	91,661031
716,000000	91,719417
715,000000	91,759248
714,000000	91,790157
713,000000	91,834986
712,000000	91,864024
711,000000	91,877944
710,000000	91,897153
709,000000	91,928732
708,000000	91,966848
707,000000	91,969171
706,000000	91,987431
705,000000	91,991772
704,000000	92,002971
703,000000	92,034272
702,000000	92,064376
701,000000	92,041962
700,000000	92,047076
699,000000	92,065328
698,000000	92,077005
697,000000	92,065188
696,000000	92,099598
695,000000	92,094960
694,000000	92,093413
693,000000	92,109414
692,000000	92,127401
691,000000	92,119188
690,000000	92,126578
689,000000	92,128869
688,000000	92,126268
687,000000	92,130439
686,000000	92,136554
685,000000	92,118797
684,000000	92,129775
683,000000	92,139971
682,000000	92,110418
681,000000	92,140242
680,000000	92,131362
679,000000	92,139130
678,000000	92,144509
677,000000	92,127493
676,000000	92,136282
675,000000	92,120883
674,000000	92,119768
673,000000	92,126521
672,000000	92,132796
671,000000	92,144849
670,000000	92,118322
669,000000	92,126988
668,000000	92,132882
667,000000	92,119896
666,000000	92,124641
665,000000	92,114217
664,000000	92,121384
663,000000	92,118678
662,000000	92,103619
661,000000	92,123087
660,000000	92,110509
659,000000	92,110105
658,000000	92,105828
657,000000	92,094756
656,000000	92,094068
655,000000	92,092928
654,000000	92,096744
653,000000	92,105640
652,000000	92,112351
651,000000	92,106888
650,000000	92,111356
649,000000	92,113014
648,000000	92,114046
647,000000	92,111892
646,000000	92,104986
645,000000	92,117754
644,000000	92,106686
643,000000	92,097409
642,000000	92,093698
641,000000	92,093787
640,000000	92,102259
639,000000	92,110292
638,000000	92,106140
637,000000	92,091360
636,000000	92,078793
635,000000	92,107096
634,000000	92,094483
633,000000	92,086693
632,000000	92,082928
631,000000	92,077065
630,000000	92,061935
629,000000	92,083289
628,000000	92,083313
627,000000	92,072357
626,000000	92,059884
625,000000	92,050708
624,000000	92,049975
623,000000	92,053127
622,000000	92,047845
621,000000	92,035272
620,000000	92,026745
619,000000	92,035539
618,000000	92,046838
617,000000	92,038872
616,000000	92,027003
615,000000	92,034981
614,000000	92,022286
613,000000	92,003455
612,000000	91,991816
611,000000	91,993551
610,000000	92,006812
609,000000	92,006232
608,000000	91,993007
607,000000	91,990406
606,000000	91,990044
605,000000	91,981879
604,000000	91,964048
603,000000	91,961629
602,000000	91,970073
601,000000	91,980301
600,000000	91,987364
599,000000	91,993473
598,000000	92,028422
597,000000	92,027987
596,000000	92,021923
595,000000	92,026347
594,000000	92,040441
593,000000	92,031606
592,000000	92,029293
591,000000	92,034070
590,000000	92,035132
589,000000	92,019848
588,000000	92,034202
587,000000	92,040502
586,000000	92,041708
585,000000	92,041844
584,000000	92,044335
583,000000	92,045609
582,000000	92,043523
581,000000	92,034043
580,000000	92,036449
579,000000	92,056015
578,000000	92,032277
577,000000	92,017117
576,000000	92,010011
575,000000	92,015237
574,000000	92,025447
573,000000	92,008363
572,000000	92,015393
571,000000	92,003652
570,000000	91,992606
569,000000	91,992763
568,000000	91,998382
567,000000	91,988898
566,000000	91,969176
565,000000	91,965554
564,000000	91,973729
563,000000	91,964686
562,000000	91,929850
561,000000	91,945089
560,000000	91,938282
559,000000	91,913903
558,000000	91,911050
557,000000	91,925771
556,000000	91,920848
555,000000	91,908590
554,000000	91,902882
553,000000	91,907228
552,000000	91,872462
551,000000	91,863448
550,000000	91,868537
549,000000	91,887336
548,000000	91,904215
547,000000	91,853801
546,000000	91,850514
545,000000	91,849609
544,000000	91,842599
543,000000	91,834131
542,000000	91,845918
541,000000	91,843911
540,000000	91,836803
539,000000	91,826542
538,000000	91,819913
537,000000	91,827782
536,000000	91,797234
535,000000	91,801101
534,000000	91,792587
533,000000	91,777104
532,000000	91,793209
531,000000	91,810453
530,000000	91,789365
529,000000	91,772301
528,000000	91,758044
527,000000	91,732644
526,000000	91,745014
525,000000	91,749102
524,000000	91,746764
523,000000	91,737078
522,000000	91,723757
521,000000	91,735549
520,000000	91,730005
519,000000	91,718542
518,000000	91,709288
517,000000	91,701377
516,000000	91,667556
515,000000	91,678629
514,000000	91,694524
513,000000	91,695718
512,000000	91,676823
511,000000	91,655847
510,000000	91,651623
509,000000	91,656136
508,000000	91,653731
507,000000	91,632003
506,000000	91,583794
505,000000	91,612717
504,000000	91,629235
503,000000	91,625014
502,000000	91,598196
501,000000	91,554949
500,000000	91,571685
499,000000	91,583154
498,000000	91,582935
497,000000	91,575260
496,000000	91,567721
495,000000	91,528807
494,000000	91,537655
493,000000	91,520569
492,000000	91,488209
491,000000	91,479316
490,000000	91,502223
489,000000	91,506096
488,000000	91,498169
487,000000	91,482647
486,000000	91,467228
485,000000	91,475025
484,000000	91,439421
483,000000	91,430652
482,000000	91,431276
481,000000	91,422086
480,000000	91,410455
479,000000	91,406903
478,000000	91,403090
477,000000	91,400748
476,000000	91,397050
475,000000	91,380707
474,000000	91,367334
473,000000	91,360831
472,000000	91,346474
471,000000	91,328202
470,000000	91,331688
469,000000	91,343124
468,000000	91,316377
467,000000	91,284397
466,000000	91,267523
465,000000	91,276882
464,000000	91,237956
463,000000	91,253166
462,000000	91,240578
461,000000	91,181551
460,000000	91,178451
459,000000	91,176354
458,000000	91,162950
457,000000	91,149680
456,000000	91,142259
455,000000	91,120225
454,000000	91,106408
453,000000	91,100162
452,000000	91,094154
451,000000	91,081003
450,000000	91,065243
449,000000	91,078210
448,000000	91,049762
447,000000	90,998429
446,000000	90,961932
445,000000	90,982725
444,000000	90,975970
443,000000	90,969031
442,000000	90,960318
441,000000	90,932519
440,000000	90,874391
439,000000	90,871381
438,000000	90,865650
437,000000	90,820529
436,000000	90,779220
435,000000	90,779289
434,000000	90,810107
433,000000	90,835331
432,000000	90,752080
431,000000	90,713155
430,000000	90,722143
429,000000	90,679531
428,000000	90,713508
427,000000	90,656221
426,000000	90,647008
425,000000	90,649954
424,000000	90,615660
423,000000	90,592143
422,000000	90,545738
421,000000	90,502599
420,000000	90,508577
419,000000	90,544454
418,000000	90,533956
417,000000	90,504352
416,000000	90,499667
415,000000	90,475456
414,000000	90,449873
413,000000	90,446970
412,000000	90,376366
411,000000	90,374686
410,000000	90,346619
409,000000	90,341883
408,000000	90,399249
407,000000	90,320912
406,000000	90,273678
405,000000	90,206302
404,000000	90,165717
403,000000	90,181225
402,000000	90,161183
401,000000	90,089333
400,000000	89,868938
399,000000	89,101844
398,000000	89,216122
397,000000	88,986162
396,000000	88,976331
395,000000	88,877488
394,000000	88,747235
393,000000	88,701378
392,000000	88,930566
391,000000	89,071491
390,000000	88,899427
389,000000	88,969137
388,000000	89,128379
387,000000	88,651067
386,000000	88,646743
385,000000	88,645066
384,000000	88,880824
383,000000	88,973478
382,000000	88,133162
381,000000	88,590104
380,000000	88,654939
379,000000	88,828825
378,000000	89,082389
377,000000	88,924083
376,000000	88,582967
375,000000	88,594549
374,000000	88,559204
373,000000	88,520476
372,000000	88,890003
371,000000	88,707219
370,000000	88,754995
369,000000	88,694681
368,000000	88,504020
367,000000	88,424048
366,000000	88,227049
365,000000	88,291781
364,000000	88,453973
363,000000	88,523231
362,000000	88,289813
361,000000	88,640580
360,000000	88,335756
359,000000	88,213677
358,000000	88,281046
357,000000	88,019804
356,000000	88,057852
355,000000	87,946120
354,000000	88,039394
353,000000	88,176125
352,000000	87,933776
351,000000	87,703162
350,000000	87,709667
349,000000	87,853567
348,000000	87,961966
347,000000	87,869982
346,000000	87,763042
345,000000	87,676077
344,000000	87,445779
343,000000	87,361151
342,000000	87,652780
341,000000	87,595120
340,000000	87,603603
339,000000	87,484037
338,000000	87,396216
337,000000	87,409880
336,000000	87,126567
335,000000	87,049307
334,000000	87,014443
333,000000	86,949132
332,000000	86,869464
331,000000	86,929871
330,000000	86,754924
329,000000	86,685211
328,000000	86,621180
327,000000	86,477664
326,000000	86,215426
325,000000	86,333856
324,000000	86,169221
323,000000	86,026184
322,000000	85,971766
321,000000	85,941999
320,000000	85,935231
319,000000	85,870861
318,000000	85,587833
317,000000	85,372388
316,000000	85,478104
315,000000	85,422227
314,000000	85,278530
313,000000	85,012537
312,000000	84,789564
311,000000	84,713497
310,000000	84,678096
309,000000	84,456164
308,000000	84,372746
307,000000	84,247847
306,000000	84,036783
305,000000	83,917551
304,000000	83,801208
303,000000	83,680565
302,000000	83,586425
301,000000	83,489691
300,000000	83,322740
299,000000	83,163163
298,000000	83,026752
297,000000	82,936367
296,000000	82,817788
295,000000	82,599552
294,000000	82,525827
293,000000	82,459576
292,000000	82,224651
291,000000	82,033099
290,000000	82,032459
289,000000	81,804314
288,000000	81,721552
287,000000	81,680990
286,000000	81,544868
285,000000	81,290673
284,000000	81,202516
283,000000	81,113374
282,000000	80,949466
281,000000	80,773229
280,000000	80,658625
279,000000	80,664191
278,000000	80,564207
277,000000	80,420971
276,000000	80,270852
275,000000	80,137539
274,000000	80,022348
273,000000	80,009186
272,000000	79,878446
271,000000	79,723248
270,000000	79,600750
269,000000	79,485362
268,000000	79,402618
267,000000	79,311226
266,000000	79,176014
265,000000	79,040407
264,000000	78,980362
263,000000	78,805785
262,000000	78,722983
261,000000	78,588889
260,000000	78,445953
259,000000	78,362935
258,000000	78,206180
257,000000	78,041271
256,000000	77,851279
255,000000	77,658479
254,000000	77,483207
253,000000	77,322745
252,000000	77,007494
251,000000	76,694903
250,000000	76,371132
249,000000	76,024279
248,000000	75,657713
247,000000	75,150254
246,000000	74,643915
245,000000	74,072804
244,000000	73,398944
243,000000	72,620829
242,000000	71,658624
241,000000	70,494858
240,000000	69,126660
239,000000	67,547665
238,000000	65,747103
237,000000	63,612204
236,000000	61,076890
235,000000	58,238527
234,000000	55,061931
233,000000	51,451695
232,000000	47,367082
231,000000	43,069206
230,000000	38,505394
229,000000	33,833686
228,000000	29,255929
227,000000	24,768825
226,000000	20,817199
225,000000	17,156204
224,000000	13,802850
223,000000	10,811597
222,000000	8,260031
221,000000	6,170868
220,000000	4,450739
219,000000	3,080646
218,000000	2,038935
217,000000	1,334232
216,000000	0,865567
215,000000	0,507257
214,000000	0,243977
213,000000	0,072656
212,000000	0,005619
211,000000	0,004888
210,000000	0,004984
209,000000	0,005212
208,000000	0,005571
207,000000	0,005879
206,000000	0,006300
205,000000	0,006707
204,000000	0,006912
203,000000	0,007188
202,000000	0,008104
201,000000	0,008768
200,000000	0,009104
