PE UV       SUBTECH     SPECTRUM    ASCII       PEDS        4.00        
   -1
KBr.Probe.asc
24/07/02
11:42:17.00
24/07/02
11:42:17.00
student

200,000000
1
Lambda 365
365K7092207
  / Unknown

480
1
0,5
0
0
Both on
1
1
1
None
0
0
0
0
 
 
0
0
0
0
0
 
 
 
0
 
0
400
0
 
0
 
 
 
0
0
0
 
0
 
 
 
0
 
 
0
0
0
0
0
 
 
 
 
0
0


0
0
#HDR
-1
-1
#GR
nm
%T
1.0
0.0
1100,000000
-1,000000
901
8
80,960511
0,007525
#DATA
1100,000000	80,960511
1099,000000	80,928008
1098,000000	80,898441
1097,000000	80,906800
1096,000000	80,926996
1095,000000	80,873559
1094,000000	80,889136
1093,000000	80,895809
1092,000000	80,880236
1091,000000	80,856612
1090,000000	80,858624
1089,000000	80,804761
1088,000000	80,833688
1087,000000	80,827624
1086,000000	80,785133
1085,000000	80,774715
1084,000000	80,757454
1083,000000	80,757855
1082,000000	80,751784
1081,000000	80,732968
1080,000000	80,705652
1079,000000	80,688591
1078,000000	80,684013
1077,000000	80,661409
1076,000000	80,635034
1075,000000	80,633688
1074,000000	80,651808
1073,000000	80,630143
1072,000000	80,615310
1071,000000	80,607057
1070,000000	80,593014
1069,000000	80,583385
1068,000000	80,571352
1067,000000	80,572003
1066,000000	80,557012
1065,000000	80,505915
1064,000000	80,487826
1063,000000	80,466759
1062,000000	80,446770
1061,000000	80,431501
1060,000000	80,420503
1059,000000	80,398118
1058,000000	80,404860
1057,000000	80,400677
1056,000000	80,393034
1055,000000	80,391342
1054,000000	80,388710
1053,000000	80,359035
1052,000000	80,333372
1051,000000	80,310052
1050,000000	80,289222
1049,000000	80,285846
1048,000000	80,286369
1047,000000	80,268785
1046,000000	80,247787
1045,000000	80,231383
1044,000000	80,208638
1043,000000	80,191588
1042,000000	80,181222
1041,000000	80,171012
1040,000000	80,157424
1039,000000	80,141992
1038,000000	80,118407
1037,000000	80,104536
1036,000000	80,095928
1035,000000	80,088409
1034,000000	80,079311
1033,000000	80,062031
1032,000000	80,043011
1031,000000	80,025618
1030,000000	80,009205
1029,000000	79,989208
1028,000000	79,969970
1027,000000	79,956342
1026,000000	79,945867
1025,000000	79,933488
1024,000000	79,912367
1023,000000	79,890479
1022,000000	79,881866
1021,000000	79,867823
1020,000000	79,848841
1019,000000	79,837334
1018,000000	79,826614
1017,000000	79,803035
1016,000000	79,786879
1015,000000	79,775390
1014,000000	79,755033
1013,000000	79,733749
1012,000000	79,717247
1011,000000	79,701705
1010,000000	79,682660
1009,000000	79,657993
1008,000000	79,649709
1007,000000	79,633635
1006,000000	79,618384
1005,000000	79,602921
1004,000000	79,583102
1003,000000	79,555466
1002,000000	79,545541
1001,000000	79,537627
1000,000000	79,522760
999,000000	79,497968
998,000000	79,481012
997,000000	79,463330
996,000000	79,447158
995,000000	79,433590
994,000000	79,420319
993,000000	79,392098
992,000000	79,378798
991,000000	79,364954
990,000000	79,349200
989,000000	79,331874
988,000000	79,310862
987,000000	79,296520
986,000000	79,284396
985,000000	79,268688
984,000000	79,245391
983,000000	79,214702
982,000000	79,210198
981,000000	79,189146
980,000000	79,167200
979,000000	79,153280
978,000000	79,131898
977,000000	79,115202
976,000000	79,098227
975,000000	79,078443
974,000000	79,056309
973,000000	79,036880
972,000000	79,018361
971,000000	79,000374
970,000000	78,981988
969,000000	78,965516
968,000000	78,957495
967,000000	78,926888
966,000000	78,907511
965,000000	78,897858
964,000000	78,888668
963,000000	78,863611
962,000000	78,835316
961,000000	78,820194
960,000000	78,804582
959,000000	78,783413
958,000000	78,759809
957,000000	78,750302
956,000000	78,724440
955,000000	78,706182
954,000000	78,692462
953,000000	78,663893
952,000000	78,646777
951,000000	78,637388
950,000000	78,621615
949,000000	78,596120
948,000000	78,565369
947,000000	78,554688
946,000000	78,526828
945,000000	78,507678
944,000000	78,493985
943,000000	78,471919
942,000000	78,448819
941,000000	78,438313
940,000000	78,418058
939,000000	78,392811
938,000000	78,373163
937,000000	78,345957
936,000000	78,326113
935,000000	78,309774
934,000000	78,294461
933,000000	78,277761
932,000000	78,255895
931,000000	78,235248
930,000000	78,218996
929,000000	78,203431
928,000000	78,182015
927,000000	78,142202
926,000000	78,128903
925,000000	78,119919
924,000000	78,105707
923,000000	78,082805
922,000000	78,059842
921,000000	78,031256
920,000000	78,008788
919,000000	77,983665
918,000000	77,955450
917,000000	77,951833
916,000000	77,925561
915,000000	77,891652
914,000000	77,867609
913,000000	77,858072
912,000000	77,842057
911,000000	77,801788
910,000000	77,783403
909,000000	77,758711
908,000000	77,720282
907,000000	77,702028
906,000000	77,699952
905,000000	77,682704
904,000000	77,661181
903,000000	77,638997
902,000000	77,608091
901,000000	77,586484
900,000000	77,561056
899,000000	77,543072
898,000000	77,531151
897,000000	77,510332
896,000000	77,484130
895,000000	77,467536
894,000000	77,443000
893,000000	77,411662
892,000000	77,390016
891,000000	77,365834
890,000000	77,358043
889,000000	77,345818
888,000000	77,317181
887,000000	77,269282
886,000000	77,253723
885,000000	77,238844
884,000000	77,216767
883,000000	77,190448
882,000000	77,166101
881,000000	77,113170
880,000000	77,106365
879,000000	77,086498
878,000000	77,059922
877,000000	77,051837
876,000000	77,000548
875,000000	76,977963
874,000000	76,955949
873,000000	76,929654
872,000000	76,903811
871,000000	76,895461
870,000000	76,858761
869,000000	76,825401
868,000000	76,797042
867,000000	76,768341
866,000000	76,739857
865,000000	76,731091
864,000000	76,702943
863,000000	76,674271
862,000000	76,659257
861,000000	76,604205
860,000000	76,579594
859,000000	76,559341
858,000000	76,539250
857,000000	76,518975
856,000000	76,499767
855,000000	76,458407
854,000000	76,437484
853,000000	76,414700
852,000000	76,373932
851,000000	76,332924
850,000000	76,303970
849,000000	76,272380
848,000000	76,248015
847,000000	76,233629
846,000000	76,214383
845,000000	76,176160
844,000000	76,137048
843,000000	76,103308
842,000000	76,072870
841,000000	76,031711
840,000000	76,028320
839,000000	75,993134
838,000000	75,957095
837,000000	75,926231
836,000000	75,871571
835,000000	75,865399
834,000000	75,826877
833,000000	75,788682
832,000000	75,758570
831,000000	75,718742
830,000000	75,702803
829,000000	75,664420
828,000000	75,633744
827,000000	75,607571
826,000000	75,558217
825,000000	75,528669
824,000000	75,505170
823,000000	75,479408
822,000000	75,440489
821,000000	75,379897
820,000000	75,357367
819,000000	75,335132
818,000000	75,314697
817,000000	75,279913
816,000000	75,214440
815,000000	75,202292
814,000000	75,155548
813,000000	75,109978
812,000000	75,074181
811,000000	75,045021
810,000000	75,011667
809,000000	74,959089
808,000000	74,920798
807,000000	74,890135
806,000000	74,851032
805,000000	74,809648
804,000000	74,758560
803,000000	74,727519
802,000000	74,698199
801,000000	74,654080
800,000000	74,621381
799,000000	74,581025
798,000000	74,551601
797,000000	74,508883
796,000000	74,449428
795,000000	74,426205
794,000000	74,382763
793,000000	74,326610
792,000000	74,288665
791,000000	74,267861
790,000000	74,217331
789,000000	74,170056
788,000000	74,119980
787,000000	74,067949
786,000000	74,019331
785,000000	73,983081
784,000000	73,967442
783,000000	73,915985
782,000000	73,856141
781,000000	73,802736
780,000000	73,762231
779,000000	73,734339
778,000000	73,670940
777,000000	73,606382
776,000000	73,549996
775,000000	73,501491
774,000000	73,460568
773,000000	73,408418
772,000000	73,365406
771,000000	73,329383
770,000000	73,288352
769,000000	73,212838
768,000000	73,157975
767,000000	73,114030
766,000000	73,069308
765,000000	73,016237
764,000000	72,957591
763,000000	72,908767
762,000000	72,859314
761,000000	72,812655
760,000000	72,767758
759,000000	72,715739
758,000000	72,656309
757,000000	72,600172
756,000000	72,544246
755,000000	72,491250
754,000000	72,449340
753,000000	72,396682
752,000000	72,330621
751,000000	72,267145
750,000000	72,206245
749,000000	72,139725
748,000000	72,083545
747,000000	72,032740
746,000000	71,976713
745,000000	71,913752
744,000000	71,847243
743,000000	71,788585
742,000000	71,728759
741,000000	71,671008
740,000000	71,612964
739,000000	71,552191
738,000000	71,491624
737,000000	71,425454
736,000000	71,360358
735,000000	71,298794
734,000000	71,239143
733,000000	71,171239
732,000000	71,105912
731,000000	71,050558
730,000000	70,989248
729,000000	70,922498
728,000000	70,879143
727,000000	70,811676
726,000000	70,745795
725,000000	70,682119
724,000000	70,620110
723,000000	70,558472
722,000000	70,484684
721,000000	70,416626
720,000000	70,349625
719,000000	70,286037
718,000000	70,230929
717,000000	70,168252
716,000000	70,097427
715,000000	70,024936
714,000000	69,956998
713,000000	69,895525
712,000000	69,814304
711,000000	69,750956
710,000000	69,684501
709,000000	69,619660
708,000000	69,561101
707,000000	69,488887
706,000000	69,416170
705,000000	69,347233
704,000000	69,282617
703,000000	69,220476
702,000000	69,154843
701,000000	69,089977
700,000000	69,018482
699,000000	68,948589
698,000000	68,881859
697,000000	68,808184
696,000000	68,745142
695,000000	68,681216
694,000000	68,614108
693,000000	68,545677
692,000000	68,481393
691,000000	68,422579
690,000000	68,354832
689,000000	68,289932
688,000000	68,225138
687,000000	68,151197
686,000000	68,086518
685,000000	68,014310
684,000000	67,956385
683,000000	67,897275
682,000000	67,818292
681,000000	67,768514
680,000000	67,692563
679,000000	67,626642
678,000000	67,564861
677,000000	67,495438
676,000000	67,423610
675,000000	67,364114
674,000000	67,301651
673,000000	67,241668
672,000000	67,189040
671,000000	67,140555
670,000000	67,068176
669,000000	67,015427
668,000000	66,966813
667,000000	66,910555
666,000000	66,848141
665,000000	66,794991
664,000000	66,734736
663,000000	66,674615
662,000000	66,617344
661,000000	66,556420
660,000000	66,505320
659,000000	66,441284
658,000000	66,379097
657,000000	66,322207
656,000000	66,257984
655,000000	66,199124
654,000000	66,142122
653,000000	66,085251
652,000000	66,031472
651,000000	65,986094
650,000000	65,928693
649,000000	65,878696
648,000000	65,832436
647,000000	65,783047
646,000000	65,724977
645,000000	65,675924
644,000000	65,618729
643,000000	65,574521
642,000000	65,533622
641,000000	65,481602
640,000000	65,429214
639,000000	65,400299
638,000000	65,345917
637,000000	65,294031
636,000000	65,267739
635,000000	65,231145
634,000000	65,197637
633,000000	65,158367
632,000000	65,112995
631,000000	65,064952
630,000000	65,022713
629,000000	65,007015
628,000000	64,980227
627,000000	64,940586
626,000000	64,896158
625,000000	64,863886
624,000000	64,835751
623,000000	64,808093
622,000000	64,772095
621,000000	64,734966
620,000000	64,712750
619,000000	64,675828
618,000000	64,656591
617,000000	64,626122
616,000000	64,595347
615,000000	64,584562
614,000000	64,550508
613,000000	64,525457
612,000000	64,496508
611,000000	64,471180
610,000000	64,455309
609,000000	64,425097
608,000000	64,409109
607,000000	64,399436
606,000000	64,387725
605,000000	64,367041
604,000000	64,334017
603,000000	64,324853
602,000000	64,302029
601,000000	64,277513
600,000000	64,264499
599,000000	64,272040
598,000000	64,264644
597,000000	64,239170
596,000000	64,218975
595,000000	64,205920
594,000000	64,181395
593,000000	64,169960
592,000000	64,161860
591,000000	64,149559
590,000000	64,131368
589,000000	64,110501
588,000000	64,103781
587,000000	64,092064
586,000000	64,079785
585,000000	64,067039
584,000000	64,052498
583,000000	64,035584
582,000000	64,029158
581,000000	64,011523
580,000000	63,995094
579,000000	63,993269
578,000000	63,997176
577,000000	63,966261
576,000000	63,943681
575,000000	63,935022
574,000000	63,934603
573,000000	63,923167
572,000000	63,910417
571,000000	63,899652
570,000000	63,882725
569,000000	63,860322
568,000000	63,845061
567,000000	63,829397
566,000000	63,813956
565,000000	63,795952
564,000000	63,777358
563,000000	63,763018
562,000000	63,735672
561,000000	63,712302
560,000000	63,693113
559,000000	63,677712
558,000000	63,664191
557,000000	63,641892
556,000000	63,606327
555,000000	63,575176
554,000000	63,553998
553,000000	63,539772
552,000000	63,507396
551,000000	63,474310
550,000000	63,439493
549,000000	63,410697
548,000000	63,387948
547,000000	63,351713
546,000000	63,320765
545,000000	63,303216
544,000000	63,271139
543,000000	63,221582
542,000000	63,200636
541,000000	63,160151
540,000000	63,126957
539,000000	63,090062
538,000000	63,049926
537,000000	63,019959
536,000000	62,962299
535,000000	62,926928
534,000000	62,895735
533,000000	62,862089
532,000000	62,826658
531,000000	62,774460
530,000000	62,729039
529,000000	62,684749
528,000000	62,635576
527,000000	62,579669
526,000000	62,550694
525,000000	62,499342
524,000000	62,455794
523,000000	62,409393
522,000000	62,345710
521,000000	62,291272
520,000000	62,254483
519,000000	62,212631
518,000000	62,163373
517,000000	62,103829
516,000000	62,017538
515,000000	61,973427
514,000000	61,935730
513,000000	61,884378
512,000000	61,814215
511,000000	61,746462
510,000000	61,705911
509,000000	61,657583
508,000000	61,601205
507,000000	61,537718
506,000000	61,467325
505,000000	61,415956
504,000000	61,353023
503,000000	61,298291
502,000000	61,243798
501,000000	61,159306
500,000000	61,103447
499,000000	61,058473
498,000000	61,001227
497,000000	60,935368
496,000000	60,876045
495,000000	60,782024
494,000000	60,733684
493,000000	60,661820
492,000000	60,579442
491,000000	60,522324
490,000000	60,469092
489,000000	60,398432
488,000000	60,336509
487,000000	60,276300
486,000000	60,206575
485,000000	60,130410
484,000000	60,036662
483,000000	59,971792
482,000000	59,915196
481,000000	59,843900
480,000000	59,752138
479,000000	59,694619
478,000000	59,624438
477,000000	59,548868
476,000000	59,478225
475,000000	59,421553
474,000000	59,322007
473,000000	59,249031
472,000000	59,172829
471,000000	59,092727
470,000000	59,043596
469,000000	58,962491
468,000000	58,879323
467,000000	58,788332
466,000000	58,689113
465,000000	58,586465
464,000000	58,504671
463,000000	58,440043
462,000000	58,362075
461,000000	58,262625
460,000000	58,175009
459,000000	58,081901
458,000000	57,988020
457,000000	57,914275
456,000000	57,858917
455,000000	57,740689
454,000000	57,649022
453,000000	57,570524
452,000000	57,479131
451,000000	57,359704
450,000000	57,280146
449,000000	57,135111
448,000000	57,048033
447,000000	56,983162
446,000000	56,901070
445,000000	56,796996
444,000000	56,675719
443,000000	56,629561
442,000000	56,547017
441,000000	56,430113
440,000000	56,340103
439,000000	56,249313
438,000000	56,127390
437,000000	56,006954
436,000000	55,888629
435,000000	55,781134
434,000000	55,721913
433,000000	55,640716
432,000000	55,518176
431,000000	55,395025
430,000000	55,277246
429,000000	55,149486
428,000000	55,075608
427,000000	54,955191
426,000000	54,840328
425,000000	54,747128
424,000000	54,665788
423,000000	54,546243
422,000000	54,400390
421,000000	54,317082
420,000000	54,244190
419,000000	54,133365
418,000000	53,964898
417,000000	53,900019
416,000000	53,764682
415,000000	53,649217
414,000000	53,565935
413,000000	53,491590
412,000000	53,363595
411,000000	53,239923
410,000000	53,112699
409,000000	52,986598
408,000000	52,864196
407,000000	52,721442
406,000000	52,629779
405,000000	52,498168
404,000000	52,360724
403,000000	52,252392
402,000000	52,129483
401,000000	52,015902
400,000000	51,627534
399,000000	50,029158
398,000000	49,911504
397,000000	49,697534
396,000000	49,491845
395,000000	49,572294
394,000000	49,818131
393,000000	49,980052
392,000000	49,669060
391,000000	49,464695
390,000000	49,061603
389,000000	49,026844
388,000000	49,229058
387,000000	48,960546
386,000000	48,666859
385,000000	48,474129
384,000000	48,335067
383,000000	48,197367
382,000000	48,023194
381,000000	48,075456
380,000000	48,029348
379,000000	47,824756
378,000000	47,589538
377,000000	47,642844
376,000000	47,288130
375,000000	47,167440
374,000000	47,100958
373,000000	47,001460
372,000000	46,853427
371,000000	46,888222
370,000000	46,825345
369,000000	46,768553
368,000000	46,726308
367,000000	46,622328
366,000000	45,882462
365,000000	46,102748
364,000000	46,204871
363,000000	45,925091
362,000000	45,776633
361,000000	45,452491
360,000000	45,460490
359,000000	45,388451
358,000000	45,189433
357,000000	45,081969
356,000000	44,788865
355,000000	44,655590
354,000000	44,703396
353,000000	44,727814
352,000000	44,437553
351,000000	44,270932
350,000000	44,118848
349,000000	43,968717
348,000000	43,805900
347,000000	43,637347
346,000000	43,669209
345,000000	43,379311
344,000000	43,195162
343,000000	43,077450
342,000000	42,884140
341,000000	42,708051
340,000000	42,472946
339,000000	42,269001
338,000000	42,081252
337,000000	41,897728
336,000000	41,773578
335,000000	41,475765
334,000000	41,307361
333,000000	41,151072
332,000000	40,919829
331,000000	40,659673
330,000000	40,429950
329,000000	40,223175
328,000000	39,965915
327,000000	39,688879
326,000000	39,518190
325,000000	39,368033
324,000000	39,068352
323,000000	38,787119
322,000000	38,516457
321,000000	38,190451
320,000000	38,099050
319,000000	37,896652
318,000000	37,581279
317,000000	37,242228
316,000000	36,956555
315,000000	36,610761
314,000000	36,300267
313,000000	36,008650
312,000000	35,720522
311,000000	35,429846
310,000000	35,148522
309,000000	34,757410
308,000000	34,378443
307,000000	33,990733
306,000000	33,628879
305,000000	33,407190
304,000000	33,097871
303,000000	32,802220
302,000000	32,501265
301,000000	32,174293
300,000000	31,811673
299,000000	31,598908
298,000000	31,477168
297,000000	31,302005
296,000000	31,102615
295,000000	30,950121
294,000000	30,653784
293,000000	30,388421
292,000000	30,151050
291,000000	29,938302
290,000000	29,736867
289,000000	29,511324
288,000000	29,285305
287,000000	29,039663
286,000000	28,724000
285,000000	28,356713
284,000000	28,149418
283,000000	27,899526
282,000000	27,637288
281,000000	27,354250
280,000000	27,048562
279,000000	26,763946
278,000000	26,518118
277,000000	26,268187
276,000000	26,010702
275,000000	25,761262
274,000000	25,563513
273,000000	25,348571
272,000000	25,091196
271,000000	24,817222
270,000000	24,566551
269,000000	24,388738
268,000000	24,152247
267,000000	23,913340
266,000000	23,678405
265,000000	23,451835
264,000000	23,231703
263,000000	22,937784
262,000000	22,763149
261,000000	22,586944
260,000000	22,382415
259,000000	22,160206
258,000000	21,938273
257,000000	21,746099
256,000000	21,534483
255,000000	21,336925
254,000000	21,168962
253,000000	20,967960
252,000000	20,718920
251,000000	20,471495
250,000000	20,232380
249,000000	20,006150
248,000000	19,797599
247,000000	19,510964
246,000000	19,304412
245,000000	19,083521
244,000000	18,818842
243,000000	18,560893
242,000000	18,284635
241,000000	17,984287
240,000000	17,686168
239,000000	17,400565
238,000000	17,120138
237,000000	16,789444
236,000000	16,443337
235,000000	16,125666
234,000000	15,825831
233,000000	15,506212
232,000000	15,205971
231,000000	14,928235
230,000000	14,645175
229,000000	14,352330
228,000000	14,058394
227,000000	13,801377
226,000000	13,538731
225,000000	13,291003
224,000000	13,049229
223,000000	12,798214
222,000000	12,532956
221,000000	12,218977
220,000000	11,904893
219,000000	11,591100
218,000000	11,265132
217,000000	10,898925
216,000000	10,612795
215,000000	10,280650
214,000000	9,960941
213,000000	9,673859
212,000000	9,362755
211,000000	9,002104
210,000000	8,568943
209,000000	8,034341
208,000000	7,343215
207,000000	6,456700
206,000000	5,028384
205,000000	3,112050
204,000000	1,187398
203,000000	0,007525
202,000000	0,007945
201,000000	0,008627
200,000000	0,008870
