PE UV       SUBTECH     SPECTRUM    ASCII       PEDS        4.00        
   -1
KBr10.asc
24/07/02
11:55:43.00
24/07/02
11:55:43.00
student

200,000000
1
Lambda 365
365K7092207
  / Unknown

480
1
0,5
0
0
Both on
1
1
1
None
0
0
0
0
 
 
0
0
0
0
0
 
 
 
0
 
0
400
0
 
0
 
 
 
0
0
0
 
0
 
 
 
0
 
 
0
0
0
0
0
 
 
 
 
0
0


0
0
#HDR
-1
-1
#GR
nm
%T
1.0
0.0
1100,000000
-1,000000
901
8
80,974642
0,007955
#DATA
1100,000000	80,937178
1099,000000	80,974642
1098,000000	80,946126
1097,000000	80,916452
1096,000000	80,911761
1095,000000	80,917658
1094,000000	80,924481
1093,000000	80,908652
1092,000000	80,898900
1091,000000	80,890689
1090,000000	80,854109
1089,000000	80,796858
1088,000000	80,822681
1087,000000	80,815378
1086,000000	80,783080
1085,000000	80,805337
1084,000000	80,784300
1083,000000	80,764602
1082,000000	80,754261
1081,000000	80,735538
1080,000000	80,686261
1079,000000	80,696509
1078,000000	80,701040
1077,000000	80,683308
1076,000000	80,653415
1075,000000	80,633001
1074,000000	80,646193
1073,000000	80,629862
1072,000000	80,635693
1071,000000	80,640995
1070,000000	80,610474
1069,000000	80,585028
1068,000000	80,554374
1067,000000	80,546643
1066,000000	80,533725
1065,000000	80,495116
1064,000000	80,519701
1063,000000	80,493497
1062,000000	80,458375
1061,000000	80,431411
1060,000000	80,420483
1059,000000	80,420199
1058,000000	80,412322
1057,000000	80,410289
1056,000000	80,405922
1055,000000	80,394566
1054,000000	80,391867
1053,000000	80,360703
1052,000000	80,342927
1051,000000	80,328515
1050,000000	80,309017
1049,000000	80,294364
1048,000000	80,290308
1047,000000	80,281379
1046,000000	80,269846
1045,000000	80,253572
1044,000000	80,217900
1043,000000	80,210407
1042,000000	80,197393
1041,000000	80,188510
1040,000000	80,182049
1039,000000	80,154367
1038,000000	80,131666
1037,000000	80,110826
1036,000000	80,099396
1035,000000	80,095558
1034,000000	80,085572
1033,000000	80,068196
1032,000000	80,053801
1031,000000	80,041475
1030,000000	80,028182
1029,000000	80,009079
1028,000000	79,997511
1027,000000	79,982809
1026,000000	79,967848
1025,000000	79,952528
1024,000000	79,934228
1023,000000	79,909035
1022,000000	79,894292
1021,000000	79,884488
1020,000000	79,871329
1019,000000	79,846559
1018,000000	79,840949
1017,000000	79,826359
1016,000000	79,809242
1015,000000	79,790496
1014,000000	79,769018
1013,000000	79,754488
1012,000000	79,740370
1011,000000	79,722599
1010,000000	79,700677
1009,000000	79,677843
1008,000000	79,676694
1007,000000	79,663310
1006,000000	79,642266
1005,000000	79,621676
1004,000000	79,607854
1003,000000	79,584882
1002,000000	79,562695
1001,000000	79,555165
1000,000000	79,550311
999,000000	79,532843
998,000000	79,507814
997,000000	79,491921
996,000000	79,467567
995,000000	79,449581
994,000000	79,447711
993,000000	79,423298
992,000000	79,404631
991,000000	79,392063
990,000000	79,379615
989,000000	79,360632
988,000000	79,329006
987,000000	79,321346
986,000000	79,306265
985,000000	79,290956
984,000000	79,278660
983,000000	79,249965
982,000000	79,230335
981,000000	79,209382
980,000000	79,189275
979,000000	79,172451
978,000000	79,159803
977,000000	79,140565
976,000000	79,117274
975,000000	79,094176
974,000000	79,076750
973,000000	79,072637
972,000000	79,050610
971,000000	79,026271
970,000000	79,003839
969,000000	78,986855
968,000000	78,978533
967,000000	78,959665
966,000000	78,944377
965,000000	78,930039
964,000000	78,911385
963,000000	78,881045
962,000000	78,861658
961,000000	78,846410
960,000000	78,829296
959,000000	78,808993
958,000000	78,788722
957,000000	78,781750
956,000000	78,757411
955,000000	78,735560
954,000000	78,716975
953,000000	78,690863
952,000000	78,676230
951,000000	78,661994
950,000000	78,652815
949,000000	78,636620
948,000000	78,597185
947,000000	78,583148
946,000000	78,561589
945,000000	78,543029
944,000000	78,529282
943,000000	78,516240
942,000000	78,478435
941,000000	78,466807
940,000000	78,445183
939,000000	78,419367
938,000000	78,403820
937,000000	78,374525
936,000000	78,360123
935,000000	78,339831
934,000000	78,322316
933,000000	78,316022
932,000000	78,285872
931,000000	78,259224
930,000000	78,237697
929,000000	78,224430
928,000000	78,215397
927,000000	78,177197
926,000000	78,148931
925,000000	78,136769
924,000000	78,134301
923,000000	78,129994
922,000000	78,103432
921,000000	78,068516
920,000000	78,033351
919,000000	78,006135
918,000000	77,989085
917,000000	77,970003
916,000000	77,954282
915,000000	77,926928
914,000000	77,901749
913,000000	77,886277
912,000000	77,870511
911,000000	77,831728
910,000000	77,815415
909,000000	77,799190
908,000000	77,769995
907,000000	77,736513
906,000000	77,723267
905,000000	77,711423
904,000000	77,696268
903,000000	77,676985
902,000000	77,657253
901,000000	77,622734
900,000000	77,592768
899,000000	77,574631
898,000000	77,559496
897,000000	77,522392
896,000000	77,525571
895,000000	77,504875
894,000000	77,483253
893,000000	77,462138
892,000000	77,426071
891,000000	77,402263
890,000000	77,388434
889,000000	77,373376
888,000000	77,351775
887,000000	77,322255
886,000000	77,283475
885,000000	77,262970
884,000000	77,242902
883,000000	77,224471
882,000000	77,214211
881,000000	77,159428
880,000000	77,156412
879,000000	77,134256
878,000000	77,106283
877,000000	77,108461
876,000000	77,050443
875,000000	77,026149
874,000000	77,005932
873,000000	76,983159
872,000000	76,959409
871,000000	76,940322
870,000000	76,907270
869,000000	76,880053
868,000000	76,853698
867,000000	76,819678
866,000000	76,785811
865,000000	76,779091
864,000000	76,758069
863,000000	76,729609
862,000000	76,706631
861,000000	76,684791
860,000000	76,664172
859,000000	76,632846
858,000000	76,602409
857,000000	76,580864
856,000000	76,552945
855,000000	76,536514
854,000000	76,517060
853,000000	76,486270
852,000000	76,441563
851,000000	76,391574
850,000000	76,365313
849,000000	76,345793
848,000000	76,326332
847,000000	76,304678
846,000000	76,285765
845,000000	76,247852
844,000000	76,218205
843,000000	76,185766
842,000000	76,149666
841,000000	76,128258
840,000000	76,116218
839,000000	76,083364
838,000000	76,038366
837,000000	75,991520
836,000000	75,953451
835,000000	75,931225
834,000000	75,891097
833,000000	75,866305
832,000000	75,853622
831,000000	75,813784
830,000000	75,791205
829,000000	75,761476
828,000000	75,728622
827,000000	75,696749
826,000000	75,669689
825,000000	75,640222
824,000000	75,601078
823,000000	75,569692
822,000000	75,542173
821,000000	75,503001
820,000000	75,473587
819,000000	75,457784
818,000000	75,432358
817,000000	75,383027
816,000000	75,309259
815,000000	75,313355
814,000000	75,263732
813,000000	75,224363
812,000000	75,198004
811,000000	75,166502
810,000000	75,142494
809,000000	75,091235
808,000000	75,058249
807,000000	75,029879
806,000000	74,983586
805,000000	74,957921
804,000000	74,905621
803,000000	74,876899
802,000000	74,845963
801,000000	74,790552
800,000000	74,757413
799,000000	74,742203
798,000000	74,700950
797,000000	74,661430
796,000000	74,635021
795,000000	74,577223
794,000000	74,531216
793,000000	74,476621
792,000000	74,451117
791,000000	74,447023
790,000000	74,389753
789,000000	74,344730
788,000000	74,299097
787,000000	74,250635
786,000000	74,196999
785,000000	74,137630
784,000000	74,144749
783,000000	74,113650
782,000000	74,054320
781,000000	73,991833
780,000000	73,955730
779,000000	73,921109
778,000000	73,857874
777,000000	73,806817
776,000000	73,766484
775,000000	73,722632
774,000000	73,683774
773,000000	73,635961
772,000000	73,597819
771,000000	73,559271
770,000000	73,509119
769,000000	73,457445
768,000000	73,418842
767,000000	73,370530
766,000000	73,320716
765,000000	73,273900
764,000000	73,214840
763,000000	73,177866
762,000000	73,133530
761,000000	73,085125
760,000000	73,036329
759,000000	72,988012
758,000000	72,935961
757,000000	72,884899
756,000000	72,838564
755,000000	72,792389
754,000000	72,734452
753,000000	72,686422
752,000000	72,630475
751,000000	72,568207
750,000000	72,507853
749,000000	72,460150
748,000000	72,400299
747,000000	72,347778
746,000000	72,306809
745,000000	72,264135
744,000000	72,202837
743,000000	72,131060
742,000000	72,075207
741,000000	72,024054
740,000000	71,972651
739,000000	71,919132
738,000000	71,867770
737,000000	71,795357
736,000000	71,735202
735,000000	71,679068
734,000000	71,618028
733,000000	71,556898
732,000000	71,486536
731,000000	71,434085
730,000000	71,384090
729,000000	71,325810
728,000000	71,261419
727,000000	71,213868
726,000000	71,146051
725,000000	71,085432
724,000000	71,031734
723,000000	70,956917
722,000000	70,895273
721,000000	70,840238
720,000000	70,787485
719,000000	70,729949
718,000000	70,660340
717,000000	70,589335
716,000000	70,528024
715,000000	70,459400
714,000000	70,395598
713,000000	70,349906
712,000000	70,264966
711,000000	70,182334
710,000000	70,120401
709,000000	70,066457
708,000000	70,004397
707,000000	69,935718
706,000000	69,858440
705,000000	69,795135
704,000000	69,738506
703,000000	69,678372
702,000000	69,608240
701,000000	69,537066
700,000000	69,472576
699,000000	69,414031
698,000000	69,351073
697,000000	69,260198
696,000000	69,207918
695,000000	69,150507
694,000000	69,086854
693,000000	69,018878
692,000000	68,950546
691,000000	68,884958
690,000000	68,826545
689,000000	68,761621
688,000000	68,692554
687,000000	68,629669
686,000000	68,560833
685,000000	68,485264
684,000000	68,418466
683,000000	68,359245
682,000000	68,298331
681,000000	68,214019
680,000000	68,151883
679,000000	68,102668
678,000000	68,047700
677,000000	67,973950
676,000000	67,898009
675,000000	67,833550
674,000000	67,762499
673,000000	67,706811
672,000000	67,675227
671,000000	67,630594
670,000000	67,535539
669,000000	67,461676
668,000000	67,402580
667,000000	67,347159
666,000000	67,288336
665,000000	67,243857
664,000000	67,179058
663,000000	67,105446
662,000000	67,037876
661,000000	66,995043
660,000000	66,933323
659,000000	66,860885
658,000000	66,788428
657,000000	66,722701
656,000000	66,663270
655,000000	66,590353
654,000000	66,541770
653,000000	66,492407
652,000000	66,434325
651,000000	66,373040
650,000000	66,310585
649,000000	66,256799
648,000000	66,207958
647,000000	66,162094
646,000000	66,116674
645,000000	66,059102
644,000000	65,989843
643,000000	65,932849
642,000000	65,885664
641,000000	65,839627
640,000000	65,798192
639,000000	65,763011
638,000000	65,717072
637,000000	65,661636
636,000000	65,606636
635,000000	65,576960
634,000000	65,535750
633,000000	65,497307
632,000000	65,456682
631,000000	65,409406
630,000000	65,355350
629,000000	65,336153
628,000000	65,311239
627,000000	65,268319
626,000000	65,217488
625,000000	65,191815
624,000000	65,154530
623,000000	65,116399
622,000000	65,083472
621,000000	65,056365
620,000000	65,031024
619,000000	64,995101
618,000000	64,969693
617,000000	64,936419
616,000000	64,901149
615,000000	64,876887
614,000000	64,848334
613,000000	64,821159
612,000000	64,788748
611,000000	64,762193
610,000000	64,749484
609,000000	64,726375
608,000000	64,705181
607,000000	64,688894
606,000000	64,673835
605,000000	64,652102
604,000000	64,607655
603,000000	64,587005
602,000000	64,576938
601,000000	64,564858
600,000000	64,544196
599,000000	64,517778
598,000000	64,518916
597,000000	64,501247
596,000000	64,479664
595,000000	64,463766
594,000000	64,455906
593,000000	64,445631
592,000000	64,429444
591,000000	64,411031
590,000000	64,388975
589,000000	64,361954
588,000000	64,364881
587,000000	64,343392
586,000000	64,332881
585,000000	64,324798
584,000000	64,302678
583,000000	64,300927
582,000000	64,285567
581,000000	64,261907
580,000000	64,237949
579,000000	64,222096
578,000000	64,222210
577,000000	64,191385
576,000000	64,182813
575,000000	64,180090
574,000000	64,166772
573,000000	64,143762
572,000000	64,125123
571,000000	64,105358
570,000000	64,089051
569,000000	64,076060
568,000000	64,059539
567,000000	64,039361
566,000000	64,023692
565,000000	64,013904
564,000000	64,000511
563,000000	63,966029
562,000000	63,906649
561,000000	63,905736
560,000000	63,894292
559,000000	63,868129
558,000000	63,849859
557,000000	63,804468
556,000000	63,780865
555,000000	63,766390
554,000000	63,753966
553,000000	63,732865
552,000000	63,667490
551,000000	63,646079
550,000000	63,611929
549,000000	63,576888
548,000000	63,550569
547,000000	63,509389
546,000000	63,474931
545,000000	63,450909
544,000000	63,414175
543,000000	63,363330
542,000000	63,338845
541,000000	63,309628
540,000000	63,272393
539,000000	63,222481
538,000000	63,173173
537,000000	63,155234
536,000000	63,117610
535,000000	63,064130
534,000000	63,000712
533,000000	62,950198
532,000000	62,940102
531,000000	62,887092
530,000000	62,846215
529,000000	62,811593
528,000000	62,766214
527,000000	62,696477
526,000000	62,659946
525,000000	62,593519
524,000000	62,552187
523,000000	62,519710
522,000000	62,465811
521,000000	62,398310
520,000000	62,360796
519,000000	62,315040
518,000000	62,257025
517,000000	62,190939
516,000000	62,126716
515,000000	62,078465
514,000000	62,025478
513,000000	61,974833
512,000000	61,922682
511,000000	61,836648
510,000000	61,763280
509,000000	61,715241
508,000000	61,675661
507,000000	61,626674
506,000000	61,552249
505,000000	61,501390
504,000000	61,443650
503,000000	61,388577
502,000000	61,325586
501,000000	61,229709
500,000000	61,187013
499,000000	61,146337
498,000000	61,081526
497,000000	61,007540
496,000000	60,955484
495,000000	60,855167
494,000000	60,811383
493,000000	60,737817
492,000000	60,660907
491,000000	60,629770
490,000000	60,561957
489,000000	60,482400
488,000000	60,417393
487,000000	60,345474
486,000000	60,253667
485,000000	60,206294
484,000000	60,108984
483,000000	60,042024
482,000000	59,978707
481,000000	59,896307
480,000000	59,817979
479,000000	59,766814
478,000000	59,689083
477,000000	59,615928
476,000000	59,558816
475,000000	59,488600
474,000000	59,409104
473,000000	59,322057
472,000000	59,242765
471,000000	59,172566
470,000000	59,096358
469,000000	59,025733
468,000000	58,941242
467,000000	58,837081
466,000000	58,732252
465,000000	58,673463
464,000000	58,587532
463,000000	58,495990
462,000000	58,394305
461,000000	58,291721
460,000000	58,225459
459,000000	58,164380
458,000000	58,075952
457,000000	57,979112
456,000000	57,885784
455,000000	57,769012
454,000000	57,667197
453,000000	57,608144
452,000000	57,537081
451,000000	57,403795
450,000000	57,298302
449,000000	57,234960
448,000000	57,160812
447,000000	57,063970
446,000000	56,951022
445,000000	56,847347
444,000000	56,741369
443,000000	56,665704
442,000000	56,564420
441,000000	56,447939
440,000000	56,358204
439,000000	56,267705
438,000000	56,146080
437,000000	56,046213
436,000000	55,946384
435,000000	55,833192
434,000000	55,742167
433,000000	55,660927
432,000000	55,551188
431,000000	55,445388
430,000000	55,350847
429,000000	55,251950
428,000000	55,126398
427,000000	55,014336
426,000000	54,872815
425,000000	54,747574
424,000000	54,677036
423,000000	54,612957
422,000000	54,453065
421,000000	54,351019
420,000000	54,258550
419,000000	54,154811
418,000000	54,059430
417,000000	53,994843
416,000000	53,844607
415,000000	53,721806
414,000000	53,625495
413,000000	53,516918
412,000000	53,389159
411,000000	53,281686
410,000000	53,164100
409,000000	53,048351
408,000000	52,953291
407,000000	52,878051
406,000000	52,680690
405,000000	52,502760
404,000000	52,374859
403,000000	52,286052
402,000000	52,160043
401,000000	52,000690
400,000000	51,601905
399,000000	49,914114
398,000000	49,638753
397,000000	49,685424
396,000000	49,794048
395,000000	49,736129
394,000000	49,599236
393,000000	49,516208
392,000000	49,662261
391,000000	49,331502
390,000000	48,895066
389,000000	48,930846
388,000000	49,121039
387,000000	48,452158
386,000000	48,398360
385,000000	48,261279
384,000000	48,057328
383,000000	47,876323
382,000000	47,871277
381,000000	47,926389
380,000000	47,885992
379,000000	47,741241
378,000000	47,558896
377,000000	47,495367
376,000000	47,143540
375,000000	47,110630
374,000000	47,100958
373,000000	47,044710
372,000000	47,057327
371,000000	46,701795
370,000000	46,632466
369,000000	46,688098
368,000000	46,687009
367,000000	46,430934
366,000000	46,101745
365,000000	46,230511
364,000000	46,154788
363,000000	45,802815
362,000000	45,656793
361,000000	45,574382
360,000000	45,425679
359,000000	45,337635
358,000000	45,266722
357,000000	45,084746
356,000000	44,910295
355,000000	44,652122
354,000000	44,551625
353,000000	44,465259
352,000000	44,091307
351,000000	44,216043
350,000000	44,204865
349,000000	44,099006
348,000000	43,901061
347,000000	43,611911
346,000000	43,323875
345,000000	43,202744
344,000000	43,066292
343,000000	42,977734
342,000000	42,976306
341,000000	42,599240
340,000000	42,514437
339,000000	42,347377
338,000000	42,113234
337,000000	41,860414
336,000000	41,506191
335,000000	41,524345
334,000000	41,380010
333,000000	41,131087
332,000000	40,874183
331,000000	40,658257
330,000000	40,389568
329,000000	40,228765
328,000000	40,106407
327,000000	39,911132
326,000000	39,516755
325,000000	39,292757
324,000000	39,007656
323,000000	38,800917
322,000000	38,632894
321,000000	38,380985
320,000000	38,056915
319,000000	37,899317
318,000000	37,622395
317,000000	37,260451
316,000000	36,924668
315,000000	36,607622
314,000000	36,328905
313,000000	35,976450
312,000000	35,647475
311,000000	35,395031
310,000000	35,090762
309,000000	34,751087
308,000000	34,442393
307,000000	34,104532
306,000000	33,724239
305,000000	33,356869
304,000000	32,977023
303,000000	32,696327
302,000000	32,451528
301,000000	32,212687
300,000000	31,976137
299,000000	31,707052
298,000000	31,428188
297,000000	31,241525
296,000000	31,108218
295,000000	30,942864
294,000000	30,794300
293,000000	30,561128
292,000000	30,309709
291,000000	30,052857
290,000000	29,796371
289,000000	29,570760
288,000000	29,300954
287,000000	29,082249
286,000000	28,822589
285,000000	28,491545
284,000000	28,268502
283,000000	27,947558
282,000000	27,619172
281,000000	27,334877
280,000000	27,108027
279,000000	26,836793
278,000000	26,539617
277,000000	26,326298
276,000000	26,111116
275,000000	25,829453
274,000000	25,574755
273,000000	25,339092
272,000000	25,114426
271,000000	24,852476
270,000000	24,584860
269,000000	24,446505
268,000000	24,170930
267,000000	23,909540
266,000000	23,671653
265,000000	23,443923
264,000000	23,204838
263,000000	23,012586
262,000000	22,820211
261,000000	22,598426
260,000000	22,374621
259,000000	22,182803
258,000000	21,989776
257,000000	21,788147
256,000000	21,565828
255,000000	21,362789
254,000000	21,192203
253,000000	20,979076
252,000000	20,740007
251,000000	20,509214
250,000000	20,260936
249,000000	20,006422
248,000000	19,808048
247,000000	19,558048
246,000000	19,314306
245,000000	19,080423
244,000000	18,849359
243,000000	18,604017
242,000000	18,302497
241,000000	18,014410
240,000000	17,726733
239,000000	17,438276
238,000000	17,157863
237,000000	16,823822
236,000000	16,501859
235,000000	16,166978
234,000000	15,837040
233,000000	15,550375
232,000000	15,250802
231,000000	14,958695
230,000000	14,657462
229,000000	14,366558
228,000000	14,107572
227,000000	13,822096
226,000000	13,561451
225,000000	13,299774
224,000000	13,047179
223,000000	12,810375
222,000000	12,552014
221,000000	12,271036
220,000000	11,972161
219,000000	11,648937
218,000000	11,299442
217,000000	10,934263
216,000000	10,646260
215,000000	10,339858
214,000000	10,040513
213,000000	9,751299
212,000000	9,431251
211,000000	9,076316
210,000000	8,652179
209,000000	8,149512
208,000000	7,499219
207,000000	6,614023
206,000000	5,249848
205,000000	3,402862
204,000000	1,397517
203,000000	0,053627
202,000000	0,007955
201,000000	0,008772
200,000000	0,009003
