PE UV       SUBTECH     SPECTRUM    ASCII       PEDS        4.00        
   -1
KBr20.asc
24/07/02
12:05:39.00
24/07/02
12:05:39.00
student

200,000000
1
Lambda 365
365K7092207
  / Unknown

480
1
0,5
0
0
Both on
1
1
1
None
0
0
0
0
 
 
0
0
0
0
0
 
 
 
0
 
0
400
0
 
0
 
 
 
0
0
0
 
0
 
 
 
0
 
 
0
0
0
0
0
 
 
 
 
0
0


0
0
#HDR
-1
-1
#GR
nm
%T
1.0
0.0
1100,000000
-1,000000
901
8
81,397250
0,007976
#DATA
1100,000000	81,397250
1099,000000	81,367279
1098,000000	81,340017
1097,000000	81,356667
1096,000000	81,384768
1095,000000	81,320218
1094,000000	81,325505
1093,000000	81,347607
1092,000000	81,350759
1091,000000	81,325008
1090,000000	81,282640
1089,000000	81,273500
1088,000000	81,280231
1087,000000	81,263656
1086,000000	81,232779
1085,000000	81,224658
1084,000000	81,212524
1083,000000	81,210369
1082,000000	81,207753
1081,000000	81,195021
1080,000000	81,167499
1079,000000	81,178083
1078,000000	81,169692
1077,000000	81,155720
1076,000000	81,133676
1075,000000	81,101020
1074,000000	81,111757
1073,000000	81,086872
1072,000000	81,087249
1071,000000	81,099309
1070,000000	81,090365
1069,000000	81,063474
1068,000000	81,041196
1067,000000	81,022458
1066,000000	81,004050
1065,000000	80,986988
1064,000000	80,997529
1063,000000	80,965953
1062,000000	80,926839
1061,000000	80,904124
1060,000000	80,905862
1059,000000	80,891058
1058,000000	80,880490
1057,000000	80,882085
1056,000000	80,887813
1055,000000	80,885809
1054,000000	80,858378
1053,000000	80,833338
1052,000000	80,820631
1051,000000	80,805103
1050,000000	80,783462
1049,000000	80,788109
1048,000000	80,761624
1047,000000	80,756784
1046,000000	80,748212
1045,000000	80,720742
1044,000000	80,690383
1043,000000	80,686134
1042,000000	80,675028
1041,000000	80,659539
1040,000000	80,642382
1039,000000	80,623141
1038,000000	80,610229
1037,000000	80,591635
1036,000000	80,578473
1035,000000	80,573232
1034,000000	80,566782
1033,000000	80,537688
1032,000000	80,530618
1031,000000	80,518158
1030,000000	80,496919
1029,000000	80,488737
1028,000000	80,458357
1027,000000	80,452023
1026,000000	80,438625
1025,000000	80,415795
1024,000000	80,404062
1023,000000	80,381052
1022,000000	80,369415
1021,000000	80,355127
1020,000000	80,336613
1019,000000	80,320305
1018,000000	80,306082
1017,000000	80,285566
1016,000000	80,269565
1015,000000	80,257344
1014,000000	80,242359
1013,000000	80,223354
1012,000000	80,201951
1011,000000	80,180544
1010,000000	80,165217
1009,000000	80,160117
1008,000000	80,138144
1007,000000	80,123432
1006,000000	80,101378
1005,000000	80,078877
1004,000000	80,065728
1003,000000	80,040061
1002,000000	80,025891
1001,000000	80,016786
1000,000000	80,003367
999,000000	79,979825
998,000000	79,962987
997,000000	79,943072
996,000000	79,920301
995,000000	79,902974
994,000000	79,893247
993,000000	79,861359
992,000000	79,846065
991,000000	79,829343
990,000000	79,814941
989,000000	79,803012
988,000000	79,770369
987,000000	79,756637
986,000000	79,741287
985,000000	79,726110
984,000000	79,711756
983,000000	79,688820
982,000000	79,657815
981,000000	79,643141
980,000000	79,627111
979,000000	79,601351
978,000000	79,584107
977,000000	79,570931
976,000000	79,549719
975,000000	79,531112
974,000000	79,516870
973,000000	79,491923
972,000000	79,476467
971,000000	79,462103
970,000000	79,445852
969,000000	79,427771
968,000000	79,411537
967,000000	79,394429
966,000000	79,374736
965,000000	79,355865
964,000000	79,336243
963,000000	79,309270
962,000000	79,291324
961,000000	79,278823
960,000000	79,262428
959,000000	79,240213
958,000000	79,217167
957,000000	79,201877
956,000000	79,179993
955,000000	79,163803
954,000000	79,149930
953,000000	79,125579
952,000000	79,105980
951,000000	79,085120
950,000000	79,061732
949,000000	79,034983
948,000000	79,006177
947,000000	79,005545
946,000000	78,975765
945,000000	78,960971
944,000000	78,954900
943,000000	78,933148
942,000000	78,912297
941,000000	78,894325
940,000000	78,866676
939,000000	78,840973
938,000000	78,829736
937,000000	78,794663
936,000000	78,774745
935,000000	78,757037
934,000000	78,740074
933,000000	78,724562
932,000000	78,706390
931,000000	78,690106
930,000000	78,672158
929,000000	78,654699
928,000000	78,637871
927,000000	78,608356
926,000000	78,592888
925,000000	78,576245
924,000000	78,560917
923,000000	78,547015
922,000000	78,517485
921,000000	78,490943
920,000000	78,456669
919,000000	78,426267
918,000000	78,407925
917,000000	78,394562
916,000000	78,380919
915,000000	78,349892
914,000000	78,325524
913,000000	78,318088
912,000000	78,303376
911,000000	78,262935
910,000000	78,250009
909,000000	78,229063
908,000000	78,192381
907,000000	78,186608
906,000000	78,176073
905,000000	78,156660
904,000000	78,129266
903,000000	78,101342
902,000000	78,088432
901,000000	78,066356
900,000000	78,042611
899,000000	78,024170
898,000000	78,009374
897,000000	77,987804
896,000000	77,970361
895,000000	77,951742
894,000000	77,930151
893,000000	77,909199
892,000000	77,896086
891,000000	77,859468
890,000000	77,840373
889,000000	77,820993
888,000000	77,795784
887,000000	77,768135
886,000000	77,754658
885,000000	77,729587
884,000000	77,705481
883,000000	77,691563
882,000000	77,689052
881,000000	77,620868
880,000000	77,622441
879,000000	77,607986
878,000000	77,578514
877,000000	77,564356
876,000000	77,520434
875,000000	77,506953
874,000000	77,483164
873,000000	77,456509
872,000000	77,444756
871,000000	77,424166
870,000000	77,398166
869,000000	77,371787
868,000000	77,351536
867,000000	77,339428
866,000000	77,312837
865,000000	77,294973
864,000000	77,271334
863,000000	77,243474
862,000000	77,218100
861,000000	77,208623
860,000000	77,184455
859,000000	77,155208
858,000000	77,128719
857,000000	77,109647
856,000000	77,093863
855,000000	77,052771
854,000000	77,044314
853,000000	77,030998
852,000000	76,989357
851,000000	76,957828
850,000000	76,934993
849,000000	76,922566
848,000000	76,902368
847,000000	76,871762
846,000000	76,861774
845,000000	76,835621
844,000000	76,810851
843,000000	76,786455
842,000000	76,759842
841,000000	76,727503
840,000000	76,716927
839,000000	76,695309
838,000000	76,669767
837,000000	76,638114
836,000000	76,584887
835,000000	76,593396
834,000000	76,569402
833,000000	76,539078
832,000000	76,506680
831,000000	76,454402
830,000000	76,465642
829,000000	76,423634
828,000000	76,391971
827,000000	76,378532
826,000000	76,348727
825,000000	76,341988
824,000000	76,307359
823,000000	76,269924
822,000000	76,240278
821,000000	76,218895
820,000000	76,188622
819,000000	76,177024
818,000000	76,156898
817,000000	76,120868
816,000000	76,074687
815,000000	76,057221
814,000000	76,036751
813,000000	76,016834
812,000000	75,986184
811,000000	75,935732
810,000000	75,922576
809,000000	75,878959
808,000000	75,855249
807,000000	75,835178
806,000000	75,793688
805,000000	75,781612
804,000000	75,739934
803,000000	75,715546
802,000000	75,695077
801,000000	75,661691
800,000000	75,632031
799,000000	75,611755
798,000000	75,587295
797,000000	75,554271
796,000000	75,518693
795,000000	75,506417
794,000000	75,471140
793,000000	75,427191
792,000000	75,401881
791,000000	75,391356
790,000000	75,348029
789,000000	75,316981
788,000000	75,287419
787,000000	75,248901
786,000000	75,204304
785,000000	75,168499
784,000000	75,156758
783,000000	75,122589
782,000000	75,088156
781,000000	75,057798
780,000000	75,025842
779,000000	74,995471
778,000000	74,962380
777,000000	74,918558
776,000000	74,871151
775,000000	74,831790
774,000000	74,802744
773,000000	74,774542
772,000000	74,750547
771,000000	74,725078
770,000000	74,691090
769,000000	74,643679
768,000000	74,607152
767,000000	74,571480
766,000000	74,539756
765,000000	74,509002
764,000000	74,457218
763,000000	74,434723
762,000000	74,407071
761,000000	74,380783
760,000000	74,353666
759,000000	74,305852
758,000000	74,262549
757,000000	74,237945
756,000000	74,205728
755,000000	74,163342
754,000000	74,131945
753,000000	74,082136
752,000000	74,048896
751,000000	74,013081
750,000000	73,968848
749,000000	73,921128
748,000000	73,893250
747,000000	73,839011
746,000000	73,803940
745,000000	73,776266
744,000000	73,727424
743,000000	73,679786
742,000000	73,648099
741,000000	73,613636
740,000000	73,574344
739,000000	73,534795
738,000000	73,508596
737,000000	73,469167
736,000000	73,428122
735,000000	73,382065
734,000000	73,333761
733,000000	73,306570
732,000000	73,262206
731,000000	73,218236
730,000000	73,180769
729,000000	73,147270
728,000000	73,103687
727,000000	73,081527
726,000000	73,040338
725,000000	72,995068
724,000000	72,951132
723,000000	72,902943
722,000000	72,845294
721,000000	72,818864
720,000000	72,792202
719,000000	72,759003
718,000000	72,727069
717,000000	72,674831
716,000000	72,640239
715,000000	72,591557
714,000000	72,542561
713,000000	72,513840
712,000000	72,447784
711,000000	72,405920
710,000000	72,363841
709,000000	72,324659
708,000000	72,292772
707,000000	72,252010
706,000000	72,202449
705,000000	72,158708
704,000000	72,121593
703,000000	72,088179
702,000000	72,051803
701,000000	71,998275
700,000000	71,961505
699,000000	71,923195
698,000000	71,876224
697,000000	71,835611
696,000000	71,791467
695,000000	71,751203
694,000000	71,710955
693,000000	71,670115
692,000000	71,631419
691,000000	71,597677
690,000000	71,556153
689,000000	71,521291
688,000000	71,486679
687,000000	71,436008
686,000000	71,386034
685,000000	71,327592
684,000000	71,286243
683,000000	71,253948
682,000000	71,211233
681,000000	71,145893
680,000000	71,104099
679,000000	71,069590
678,000000	71,032632
677,000000	70,989253
676,000000	70,951298
675,000000	70,905373
674,000000	70,865499
673,000000	70,834198
672,000000	70,806896
671,000000	70,765765
670,000000	70,721675
669,000000	70,685994
668,000000	70,656264
667,000000	70,625612
666,000000	70,580632
665,000000	70,551641
664,000000	70,508818
663,000000	70,464611
662,000000	70,423919
661,000000	70,375429
660,000000	70,330990
659,000000	70,283406
658,000000	70,233512
657,000000	70,187766
656,000000	70,157623
655,000000	70,085982
654,000000	70,040206
653,000000	70,002862
652,000000	69,964136
651,000000	69,921749
650,000000	69,876504
649,000000	69,826550
648,000000	69,789870
647,000000	69,756308
646,000000	69,707111
645,000000	69,662394
644,000000	69,625759
643,000000	69,586392
642,000000	69,542735
641,000000	69,497504
640,000000	69,460373
639,000000	69,428938
638,000000	69,382731
637,000000	69,333360
636,000000	69,293791
635,000000	69,262206
634,000000	69,236194
633,000000	69,196289
632,000000	69,143755
631,000000	69,089652
630,000000	69,058587
629,000000	69,030077
628,000000	69,004366
627,000000	68,963046
626,000000	68,908963
625,000000	68,869483
624,000000	68,837087
623,000000	68,790988
622,000000	68,744257
621,000000	68,706606
620,000000	68,682992
619,000000	68,648212
618,000000	68,610470
617,000000	68,566735
616,000000	68,522042
615,000000	68,483333
614,000000	68,444311
613,000000	68,398882
612,000000	68,358283
611,000000	68,325935
610,000000	68,298540
609,000000	68,254616
608,000000	68,214728
607,000000	68,184257
606,000000	68,153216
605,000000	68,114242
604,000000	68,072602
603,000000	68,027200
602,000000	67,993490
601,000000	67,955586
600,000000	67,909890
599,000000	67,875377
598,000000	67,865977
597,000000	67,817280
596,000000	67,776125
595,000000	67,752585
594,000000	67,718665
593,000000	67,669212
592,000000	67,625102
591,000000	67,585578
590,000000	67,547524
589,000000	67,507616
588,000000	67,477576
587,000000	67,447506
586,000000	67,408900
585,000000	67,366018
584,000000	67,325700
583,000000	67,280258
582,000000	67,241475
581,000000	67,203028
580,000000	67,167835
579,000000	67,135185
578,000000	67,085423
577,000000	67,035887
576,000000	67,000511
575,000000	66,963960
574,000000	66,920186
573,000000	66,889581
572,000000	66,855840
571,000000	66,816637
570,000000	66,786914
569,000000	66,758191
568,000000	66,691377
567,000000	66,653143
566,000000	66,613455
565,000000	66,571013
564,000000	66,526997
563,000000	66,483971
562,000000	66,430630
561,000000	66,394477
560,000000	66,355261
559,000000	66,306245
558,000000	66,251003
557,000000	66,221352
556,000000	66,180108
555,000000	66,135704
554,000000	66,088230
553,000000	66,037218
552,000000	65,990964
551,000000	65,935317
550,000000	65,886933
549,000000	65,838714
548,000000	65,781322
547,000000	65,718765
546,000000	65,662887
545,000000	65,619302
544,000000	65,576399
543,000000	65,532483
542,000000	65,506193
541,000000	65,453364
540,000000	65,401048
539,000000	65,340344
538,000000	65,281182
537,000000	65,253108
536,000000	65,196752
535,000000	65,146801
534,000000	65,082538
533,000000	65,016416
532,000000	64,978917
531,000000	64,912438
530,000000	64,852165
529,000000	64,809971
528,000000	64,760000
527,000000	64,672891
526,000000	64,638314
525,000000	64,569681
524,000000	64,517281
523,000000	64,470439
522,000000	64,409727
521,000000	64,363871
520,000000	64,308697
519,000000	64,240686
518,000000	64,174494
517,000000	64,115399
516,000000	64,030076
515,000000	63,957441
514,000000	63,914510
513,000000	63,871090
512,000000	63,809443
511,000000	63,748119
510,000000	63,670113
509,000000	63,627258
508,000000	63,575183
507,000000	63,497121
506,000000	63,420044
505,000000	63,359415
504,000000	63,313917
503,000000	63,256858
502,000000	63,183940
501,000000	63,111145
500,000000	63,036766
499,000000	62,979594
498,000000	62,918103
497,000000	62,851447
496,000000	62,789971
495,000000	62,731112
494,000000	62,662125
493,000000	62,578802
492,000000	62,500300
491,000000	62,445895
490,000000	62,379121
489,000000	62,310984
488,000000	62,238921
487,000000	62,164560
486,000000	62,090719
485,000000	62,020368
484,000000	61,929889
483,000000	61,856397
482,000000	61,795643
481,000000	61,734465
480,000000	61,652731
479,000000	61,596544
478,000000	61,515543
477,000000	61,439319
476,000000	61,377233
475,000000	61,297575
474,000000	61,220271
473,000000	61,150826
472,000000	61,082313
471,000000	61,010954
470,000000	60,936959
469,000000	60,852274
468,000000	60,776579
467,000000	60,699484
466,000000	60,619065
465,000000	60,541168
464,000000	60,440091
463,000000	60,360618
462,000000	60,271975
461,000000	60,163792
460,000000	60,063871
459,000000	60,009193
458,000000	59,949748
457,000000	59,878170
456,000000	59,788631
455,000000	59,667258
454,000000	59,604466
453,000000	59,513135
452,000000	59,404238
451,000000	59,314107
450,000000	59,296724
449,000000	59,199516
448,000000	59,088742
447,000000	58,997331
446,000000	58,920175
445,000000	58,800891
444,000000	58,706463
443,000000	58,587302
442,000000	58,497885
441,000000	58,437552
440,000000	58,367217
439,000000	58,229900
438,000000	58,112767
437,000000	58,005573
436,000000	57,920944
435,000000	57,854862
434,000000	57,761222
433,000000	57,708464
432,000000	57,589771
431,000000	57,480179
430,000000	57,387063
429,000000	57,268278
428,000000	57,170244
427,000000	57,053641
426,000000	56,957686
425,000000	56,867729
424,000000	56,772714
423,000000	56,713273
422,000000	56,517070
421,000000	56,431881
420,000000	56,355528
419,000000	56,250140
418,000000	56,161491
417,000000	56,084250
416,000000	55,979870
415,000000	55,848923
414,000000	55,732239
413,000000	55,665383
412,000000	55,552698
411,000000	55,440520
410,000000	55,361748
409,000000	55,276245
408,000000	55,143224
407,000000	55,018130
406,000000	54,865198
405,000000	54,777633
404,000000	54,684460
403,000000	54,528773
402,000000	54,412316
401,000000	54,328566
400,000000	53,936067
399,000000	52,269270
398,000000	52,219081
397,000000	52,376574
396,000000	51,940841
395,000000	51,657309
394,000000	51,725801
393,000000	51,888483
392,000000	51,384325
391,000000	51,235053
390,000000	51,286747
389,000000	51,400149
388,000000	51,291482
387,000000	50,604291
386,000000	50,470745
385,000000	50,409827
384,000000	50,351593
383,000000	50,240959
382,000000	50,048809
381,000000	50,191946
380,000000	50,521025
379,000000	50,363832
378,000000	49,898104
377,000000	49,994928
376,000000	49,609763
375,000000	49,594194
374,000000	49,508278
373,000000	49,353113
372,000000	49,498291
371,000000	49,242275
370,000000	49,075717
369,000000	48,887733
368,000000	48,747216
367,000000	48,873939
366,000000	48,541688
365,000000	48,539466
364,000000	48,606483
363,000000	48,480358
362,000000	47,899992
361,000000	47,788219
360,000000	47,809683
359,000000	47,798234
358,000000	47,733545
357,000000	47,693898
356,000000	47,544544
355,000000	47,461925
354,000000	47,341122
353,000000	47,199081
352,000000	47,114998
351,000000	46,895959
350,000000	46,637683
349,000000	46,601723
348,000000	46,604745
347,000000	46,327630
346,000000	45,991240
345,000000	46,053666
344,000000	45,859150
343,000000	45,621414
342,000000	45,628049
341,000000	45,200074
340,000000	45,075901
339,000000	44,869834
338,000000	44,685998
337,000000	44,607399
336,000000	44,380224
335,000000	44,201630
334,000000	43,987749
333,000000	43,774027
332,000000	43,564531
331,000000	43,285747
330,000000	43,076243
329,000000	42,897116
328,000000	42,785065
327,000000	42,643307
326,000000	42,261778
325,000000	42,063346
324,000000	41,820264
323,000000	41,587385
322,000000	41,385509
321,000000	41,204411
320,000000	40,890592
319,000000	40,632225
318,000000	40,307416
317,000000	39,955767
316,000000	39,658298
315,000000	39,461314
314,000000	39,160369
313,000000	38,843600
312,000000	38,533017
311,000000	38,240846
310,000000	37,984985
309,000000	37,687447
308,000000	37,247047
307,000000	36,803160
306,000000	36,436864
305,000000	36,122558
304,000000	35,797105
303,000000	35,536173
302,000000	35,250273
301,000000	34,927001
300,000000	34,617804
299,000000	34,407300
298,000000	34,199773
297,000000	34,020019
296,000000	33,841757
295,000000	33,631159
294,000000	33,456393
293,000000	33,247887
292,000000	32,993709
291,000000	32,729108
290,000000	32,483699
289,000000	32,231067
288,000000	31,968362
287,000000	31,702160
286,000000	31,423599
285,000000	31,126287
284,000000	30,809192
283,000000	30,517654
282,000000	30,227287
281,000000	29,956103
280,000000	29,715202
279,000000	29,476884
278,000000	29,196286
277,000000	28,937797
276,000000	28,671796
275,000000	28,388008
274,000000	28,175813
273,000000	27,990022
272,000000	27,739751
271,000000	27,453394
270,000000	27,178852
269,000000	26,972556
268,000000	26,682433
267,000000	26,467274
266,000000	26,259996
265,000000	26,031190
264,000000	25,783638
263,000000	25,559939
262,000000	25,352024
261,000000	25,137400
260,000000	24,910710
259,000000	24,691511
258,000000	24,591960
257,000000	24,352454
256,000000	24,148667
255,000000	23,958282
254,000000	23,743717
253,000000	23,515002
252,000000	23,285741
251,000000	23,042118
250,000000	22,808270
249,000000	22,590197
248,000000	22,368833
247,000000	22,112331
246,000000	21,874107
245,000000	21,630639
244,000000	21,368473
243,000000	21,087750
242,000000	20,789698
241,000000	20,505859
240,000000	20,203083
239,000000	19,877680
238,000000	19,555054
237,000000	19,236253
236,000000	18,866468
235,000000	18,531073
234,000000	18,226584
233,000000	17,901183
232,000000	17,594810
231,000000	17,280381
230,000000	16,954417
229,000000	16,638570
228,000000	16,357515
227,000000	16,090059
226,000000	15,817211
225,000000	15,557404
224,000000	15,293652
223,000000	15,011780
222,000000	14,742275
221,000000	14,445056
220,000000	14,111729
219,000000	13,765511
218,000000	13,421042
217,000000	13,055673
216,000000	12,704230
215,000000	12,366417
214,000000	12,026195
213,000000	11,672552
212,000000	11,312421
211,000000	10,930854
210,000000	10,443275
209,000000	9,863550
208,000000	9,156721
207,000000	8,268356
206,000000	6,658170
205,000000	4,449660
204,000000	1,966595
203,000000	0,208899
202,000000	0,007976
201,000000	0,008947
200,000000	0,009194
