PE UV       SUBTECH     SPECTRUM    ASCII       PEDS        4.00        
   -1
blue45.asc
24/07/02
10:40:30.00
24/07/02
10:40:30.00
student

200,000000
1
Lambda 365
365K7092207
  / Unknown

480
1
0,5
0
0
Both on
1
1
1
None
0
0
0
0
 
 
0
0
0
0
0
 
 
 
0
 
0
400
0
 
0
 
 
 
0
0
0
 
0
 
 
 
0
 
 
0
0
0
0
0
 
 
 
 
0
0


0
0
#HDR
-1
-1
#GR
nm
%T
1.0
0.0
1100,000000
-1,000000
901
8
89,892363
0,003083
#DATA
1100,000000	52,780439
1099,000000	52,669221
1098,000000	52,580363
1097,000000	52,469990
1096,000000	52,349380
1095,000000	52,284109
1094,000000	52,183427
1093,000000	52,098365
1092,000000	52,021456
1091,000000	51,933343
1090,000000	51,808090
1089,000000	51,706112
1088,000000	51,634331
1087,000000	51,533101
1086,000000	51,415679
1085,000000	51,337524
1084,000000	51,254268
1083,000000	51,180383
1082,000000	51,082152
1081,000000	50,960621
1080,000000	50,837477
1079,000000	50,765291
1078,000000	50,684703
1077,000000	50,579020
1076,000000	50,472949
1075,000000	50,398042
1074,000000	50,292169
1073,000000	50,181215
1072,000000	50,096884
1071,000000	50,018669
1070,000000	49,918092
1069,000000	49,826991
1068,000000	49,726667
1067,000000	49,619240
1066,000000	49,515107
1065,000000	49,422105
1064,000000	49,324656
1063,000000	49,228505
1062,000000	49,128248
1061,000000	49,026379
1060,000000	48,928116
1059,000000	48,842442
1058,000000	48,746352
1057,000000	48,648230
1056,000000	48,553566
1055,000000	48,462905
1054,000000	48,363261
1053,000000	48,264026
1052,000000	48,162014
1051,000000	48,057899
1050,000000	47,956575
1049,000000	47,872214
1048,000000	47,767647
1047,000000	47,658479
1046,000000	47,558337
1045,000000	47,467255
1044,000000	47,359817
1043,000000	47,257002
1042,000000	47,157698
1041,000000	47,062387
1040,000000	46,967083
1039,000000	46,860424
1038,000000	46,766567
1037,000000	46,668132
1036,000000	46,566176
1035,000000	46,463196
1034,000000	46,362156
1033,000000	46,271064
1032,000000	46,170052
1031,000000	46,068908
1030,000000	45,971390
1029,000000	45,874610
1028,000000	45,774432
1027,000000	45,682533
1026,000000	45,581918
1025,000000	45,477860
1024,000000	45,392284
1023,000000	45,278125
1022,000000	45,180541
1021,000000	45,079379
1020,000000	44,971572
1019,000000	44,865903
1018,000000	44,779663
1017,000000	44,672815
1016,000000	44,570030
1015,000000	44,471867
1014,000000	44,367696
1013,000000	44,268455
1012,000000	44,162433
1011,000000	44,061509
1010,000000	43,962827
1009,000000	43,858633
1008,000000	43,755566
1007,000000	43,657963
1006,000000	43,554848
1005,000000	43,452173
1004,000000	43,357570
1003,000000	43,249398
1002,000000	43,147733
1001,000000	43,049526
1000,000000	42,953051
999,000000	42,856390
998,000000	42,754489
997,000000	42,647019
996,000000	42,544733
995,000000	42,448540
994,000000	42,355342
993,000000	42,254991
992,000000	42,157234
991,000000	42,058531
990,000000	41,955550
989,000000	41,848169
988,000000	41,745340
987,000000	41,657830
986,000000	41,560084
985,000000	41,456675
984,000000	41,355074
983,000000	41,260308
982,000000	41,150153
981,000000	41,045198
980,000000	40,945286
979,000000	40,848038
978,000000	40,750232
977,000000	40,643061
976,000000	40,540434
975,000000	40,437791
974,000000	40,334921
973,000000	40,240790
972,000000	40,138052
971,000000	40,038424
970,000000	39,938601
969,000000	39,839550
968,000000	39,748250
967,000000	39,641998
966,000000	39,545095
965,000000	39,451771
964,000000	39,358711
963,000000	39,266712
962,000000	39,161477
961,000000	39,066091
960,000000	38,971044
959,000000	38,872545
958,000000	38,773417
957,000000	38,685498
956,000000	38,585272
955,000000	38,490561
954,000000	38,399880
953,000000	38,299713
952,000000	38,195996
951,000000	38,105652
950,000000	38,012299
949,000000	37,913198
948,000000	37,811890
947,000000	37,721193
946,000000	37,622069
945,000000	37,526718
944,000000	37,433501
943,000000	37,337825
942,000000	37,241290
941,000000	37,141553
940,000000	37,047120
939,000000	36,954299
938,000000	36,855497
937,000000	36,753794
936,000000	36,661253
935,000000	36,572588
934,000000	36,485979
933,000000	36,398787
932,000000	36,298153
931,000000	36,211480
930,000000	36,120647
929,000000	36,031598
928,000000	35,948667
927,000000	35,848355
926,000000	35,759678
925,000000	35,671657
924,000000	35,586386
923,000000	35,505449
922,000000	35,422357
921,000000	35,325570
920,000000	35,234143
919,000000	35,149248
918,000000	35,066360
917,000000	34,972498
916,000000	34,893503
915,000000	34,805342
914,000000	34,715362
913,000000	34,628329
912,000000	34,539183
911,000000	34,445085
910,000000	34,360621
909,000000	34,276877
908,000000	34,189945
907,000000	34,106711
906,000000	34,027196
905,000000	33,948857
904,000000	33,871024
903,000000	33,792703
902,000000	33,712487
901,000000	33,620706
900,000000	33,535141
899,000000	33,457691
898,000000	33,384732
897,000000	33,306795
896,000000	33,228108
895,000000	33,155002
894,000000	33,078447
893,000000	32,999071
892,000000	32,925472
891,000000	32,850735
890,000000	32,780139
889,000000	32,711460
888,000000	32,636917
887,000000	32,547098
886,000000	32,475261
885,000000	32,415881
884,000000	32,344685
883,000000	32,266280
882,000000	32,197646
881,000000	32,111084
880,000000	32,045916
879,000000	31,976226
878,000000	31,904632
877,000000	31,842143
876,000000	31,765451
875,000000	31,710113
874,000000	31,647590
873,000000	31,576042
872,000000	31,503690
871,000000	31,444025
870,000000	31,371158
869,000000	31,309348
868,000000	31,251636
867,000000	31,186713
866,000000	31,125579
865,000000	31,065051
864,000000	31,006280
863,000000	30,947840
862,000000	30,890491
861,000000	30,846309
860,000000	30,787504
859,000000	30,732423
858,000000	30,681617
857,000000	30,631590
856,000000	30,575449
855,000000	30,522797
854,000000	30,473341
853,000000	30,426908
852,000000	30,379754
851,000000	30,319371
850,000000	30,266433
849,000000	30,216627
848,000000	30,165435
847,000000	30,116580
846,000000	30,090630
845,000000	30,044261
844,000000	29,995451
843,000000	29,951313
842,000000	29,911276
841,000000	29,863826
840,000000	29,820607
839,000000	29,788876
838,000000	29,746565
837,000000	29,690875
836,000000	29,644110
835,000000	29,630676
834,000000	29,600179
833,000000	29,557432
832,000000	29,517829
831,000000	29,505655
830,000000	29,464553
829,000000	29,439287
828,000000	29,413344
827,000000	29,381391
826,000000	29,347390
825,000000	29,321798
824,000000	29,290919
823,000000	29,264760
822,000000	29,243738
821,000000	29,221714
820,000000	29,187316
819,000000	29,174660
818,000000	29,163733
817,000000	29,142409
816,000000	29,106829
815,000000	29,103756
814,000000	29,071132
813,000000	29,048397
812,000000	29,031451
811,000000	29,005114
810,000000	29,008508
809,000000	28,992981
808,000000	28,981503
807,000000	28,971237
806,000000	28,954898
805,000000	28,947637
804,000000	28,938590
803,000000	28,924660
802,000000	28,912060
801,000000	28,907938
800,000000	28,916222
799,000000	28,914021
798,000000	28,907311
797,000000	28,898967
796,000000	28,891825
795,000000	28,889424
794,000000	28,888576
793,000000	28,891940
792,000000	28,898164
791,000000	28,904845
790,000000	28,908562
789,000000	28,901071
788,000000	28,911614
787,000000	28,920119
786,000000	28,921605
785,000000	28,925939
784,000000	28,945093
783,000000	28,956820
782,000000	28,963358
781,000000	28,969585
780,000000	28,982097
779,000000	29,010387
778,000000	29,016744
777,000000	29,030366
776,000000	29,049124
775,000000	29,062533
774,000000	29,083942
773,000000	29,109885
772,000000	29,132178
771,000000	29,156214
770,000000	29,186696
769,000000	29,213786
768,000000	29,235397
767,000000	29,262272
766,000000	29,288778
765,000000	29,313855
764,000000	29,353245
763,000000	29,387995
762,000000	29,417913
761,000000	29,449950
760,000000	29,488495
759,000000	29,532940
758,000000	29,566694
757,000000	29,599109
756,000000	29,637167
755,000000	29,680946
754,000000	29,723863
753,000000	29,768355
752,000000	29,812111
751,000000	29,859436
750,000000	29,909793
749,000000	29,959648
748,000000	30,018540
747,000000	30,067676
746,000000	30,123302
745,000000	30,185291
744,000000	30,246564
743,000000	30,300997
742,000000	30,369322
741,000000	30,432999
740,000000	30,488239
739,000000	30,541586
738,000000	30,625586
737,000000	30,687394
736,000000	30,754888
735,000000	30,827987
734,000000	30,902415
733,000000	30,974534
732,000000	31,047821
731,000000	31,130830
730,000000	31,215211
729,000000	31,298119
728,000000	31,387016
727,000000	31,465771
726,000000	31,543357
725,000000	31,622052
724,000000	31,709054
723,000000	31,815115
722,000000	31,901214
721,000000	32,002046
720,000000	32,097055
719,000000	32,188499
718,000000	32,291402
717,000000	32,394759
716,000000	32,507559
715,000000	32,613007
714,000000	32,720124
713,000000	32,842363
712,000000	32,953242
711,000000	33,067661
710,000000	33,190760
709,000000	33,319695
708,000000	33,448600
707,000000	33,568645
706,000000	33,699108
705,000000	33,835102
704,000000	33,975728
703,000000	34,115554
702,000000	34,236937
701,000000	34,388230
700,000000	34,529130
699,000000	34,672050
698,000000	34,821738
697,000000	34,966288
696,000000	35,124573
695,000000	35,273258
694,000000	35,432976
693,000000	35,602006
692,000000	35,757566
691,000000	35,925573
690,000000	36,095458
689,000000	36,271175
688,000000	36,448874
687,000000	36,622310
686,000000	36,815807
685,000000	37,013159
684,000000	37,213948
683,000000	37,418350
682,000000	37,625889
681,000000	37,834015
680,000000	38,059964
679,000000	38,292899
678,000000	38,534049
677,000000	38,784186
676,000000	39,035867
675,000000	39,288816
674,000000	39,555598
673,000000	39,833834
672,000000	40,115661
671,000000	40,388885
670,000000	40,683480
669,000000	40,975363
668,000000	41,254331
667,000000	41,517097
666,000000	41,768251
665,000000	41,997315
664,000000	42,196265
663,000000	42,372478
662,000000	42,527852
661,000000	42,653744
660,000000	42,760480
659,000000	42,868509
658,000000	42,974614
657,000000	43,084131
656,000000	43,215288
655,000000	43,328092
654,000000	43,552556
653,000000	43,814651
652,000000	44,080567
651,000000	44,345881
650,000000	44,604955
649,000000	44,876934
648,000000	45,158695
647,000000	45,443762
646,000000	45,724849
645,000000	46,004119
644,000000	46,292512
643,000000	46,578178
642,000000	46,865990
641,000000	47,162786
640,000000	47,458222
639,000000	47,771190
638,000000	48,067009
637,000000	48,358874
636,000000	48,662482
635,000000	48,971537
634,000000	49,279819
633,000000	49,589689
632,000000	49,898258
631,000000	50,206228
630,000000	50,521930
629,000000	50,854144
628,000000	51,178043
627,000000	51,497910
626,000000	51,815906
625,000000	52,130539
624,000000	52,458257
623,000000	52,781956
622,000000	53,099902
621,000000	53,421484
620,000000	53,761296
619,000000	54,090805
618,000000	54,441842
617,000000	54,777418
616,000000	55,112945
615,000000	55,476801
614,000000	55,812275
613,000000	56,153735
612,000000	56,507896
611,000000	56,868425
610,000000	57,226376
609,000000	57,576962
608,000000	57,922255
607,000000	58,268194
606,000000	58,616754
605,000000	58,965542
604,000000	59,302301
603,000000	59,658012
602,000000	60,004086
601,000000	60,347002
600,000000	60,694843
599,000000	61,054024
598,000000	61,416688
597,000000	61,758638
596,000000	62,101685
595,000000	62,457235
594,000000	62,823765
593,000000	63,172012
592,000000	63,516317
591,000000	63,856350
590,000000	64,202613
589,000000	64,568718
588,000000	64,927394
587,000000	65,265736
586,000000	65,617994
585,000000	65,985815
584,000000	66,357912
583,000000	66,722036
582,000000	67,087191
581,000000	67,452255
580,000000	67,824388
579,000000	68,204014
578,000000	68,558576
577,000000	68,905138
576,000000	69,252413
575,000000	69,601538
574,000000	69,950503
573,000000	70,295034
572,000000	70,651528
571,000000	70,984014
570,000000	71,312619
569,000000	71,645773
568,000000	71,972741
567,000000	72,315945
566,000000	72,643713
565,000000	72,968548
564,000000	73,303295
563,000000	73,656339
562,000000	73,940966
561,000000	74,261025
560,000000	74,573820
559,000000	74,872080
558,000000	75,167497
557,000000	75,473418
556,000000	75,764778
555,000000	76,051990
554,000000	76,340640
553,000000	76,631446
552,000000	76,906896
551,000000	77,192684
550,000000	77,489059
549,000000	77,778972
548,000000	78,059327
547,000000	78,320895
546,000000	78,589293
545,000000	78,858193
544,000000	79,121761
543,000000	79,380516
542,000000	79,645990
541,000000	79,880077
540,000000	80,120644
539,000000	80,362425
538,000000	80,605421
537,000000	80,856297
536,000000	81,067562
535,000000	81,314685
534,000000	81,550575
533,000000	81,776187
532,000000	82,022741
531,000000	82,242253
530,000000	82,440645
529,000000	82,652766
528,000000	82,858616
527,000000	83,025348
526,000000	83,227358
525,000000	83,444121
524,000000	83,642217
523,000000	83,824861
522,000000	84,005430
521,000000	84,188314
520,000000	84,362217
519,000000	84,523863
518,000000	84,683676
517,000000	84,845371
516,000000	84,977634
515,000000	85,146626
514,000000	85,320396
513,000000	85,477352
512,000000	85,607449
511,000000	85,720535
510,000000	85,866492
509,000000	85,995193
508,000000	86,128635
507,000000	86,266902
506,000000	86,375934
505,000000	86,496307
504,000000	86,609247
503,000000	86,720963
502,000000	86,826130
501,000000	86,911822
500,000000	87,049346
499,000000	87,168743
498,000000	87,277487
497,000000	87,380759
496,000000	87,480887
495,000000	87,556556
494,000000	87,688679
493,000000	87,782956
492,000000	87,865807
491,000000	87,990128
490,000000	88,075946
489,000000	88,201088
488,000000	88,315438
487,000000	88,422914
486,000000	88,538173
485,000000	88,666872
484,000000	88,761312
483,000000	88,893215
482,000000	89,034763
481,000000	89,161895
480,000000	89,295326
479,000000	89,439085
478,000000	89,552248
477,000000	89,667658
476,000000	89,780084
475,000000	89,814237
474,000000	89,841838
473,000000	89,883920
472,000000	89,892363
471,000000	89,856565
470,000000	89,810771
469,000000	89,705831
468,000000	89,596104
467,000000	89,475005
466,000000	89,348566
465,000000	89,236016
464,000000	89,109698
463,000000	88,990059
462,000000	88,871397
461,000000	88,754415
460,000000	88,652888
459,000000	88,572439
458,000000	88,480835
457,000000	88,392950
456,000000	88,315034
455,000000	88,212955
454,000000	88,152741
453,000000	88,112661
452,000000	88,065499
451,000000	88,006064
450,000000	88,059342
449,000000	88,051685
448,000000	88,059330
447,000000	88,053572
446,000000	88,011428
445,000000	87,944716
444,000000	87,970180
443,000000	87,971034
442,000000	87,968779
441,000000	87,956698
440,000000	87,923286
439,000000	87,939660
438,000000	87,879061
437,000000	87,856144
436,000000	87,836535
435,000000	87,798792
434,000000	87,811404
433,000000	87,800057
432,000000	87,796438
431,000000	87,806015
430,000000	87,811313
429,000000	87,787279
428,000000	87,796502
427,000000	87,788933
426,000000	87,764442
425,000000	87,760641
424,000000	87,790773
423,000000	87,775256
422,000000	87,740999
421,000000	87,816689
420,000000	87,908464
419,000000	87,963498
418,000000	87,990917
417,000000	88,040103
416,000000	88,104488
415,000000	88,191957
414,000000	88,274163
413,000000	88,314081
412,000000	88,305568
411,000000	88,326931
410,000000	88,301821
409,000000	88,246328
408,000000	88,185346
407,000000	88,062568
406,000000	87,903418
405,000000	87,765290
404,000000	87,620003
403,000000	87,459597
402,000000	87,398118
401,000000	87,204593
400,000000	86,968528
399,000000	86,249858
398,000000	86,279411
397,000000	86,188454
396,000000	85,900356
395,000000	85,583201
394,000000	85,566318
393,000000	85,803579
392,000000	85,853274
391,000000	85,415333
390,000000	85,447682
389,000000	85,661238
388,000000	85,639875
387,000000	84,972884
386,000000	85,178242
385,000000	85,234522
384,000000	85,097912
383,000000	84,734500
382,000000	84,139800
381,000000	84,368019
380,000000	84,468521
379,000000	84,381582
378,000000	84,226172
377,000000	84,282041
376,000000	84,002837
375,000000	84,089705
374,000000	83,999902
373,000000	83,766906
372,000000	83,914819
371,000000	83,757388
370,000000	83,725201
369,000000	83,813400
368,000000	83,866002
367,000000	83,600380
366,000000	83,142894
365,000000	82,946862
364,000000	82,903525
363,000000	82,826096
362,000000	82,458867
361,000000	82,401872
360,000000	82,024649
359,000000	81,588563
358,000000	81,312885
357,000000	81,465246
356,000000	80,774944
355,000000	80,424421
354,000000	80,213687
353,000000	79,809367
352,000000	78,910263
351,000000	78,651342
350,000000	78,233261
349,000000	77,716607
348,000000	77,192885
347,000000	76,704123
346,000000	75,725137
345,000000	74,984156
344,000000	74,076839
343,000000	73,180891
342,000000	72,481208
341,000000	71,395947
340,000000	70,402556
339,000000	69,266472
338,000000	68,058971
337,000000	66,859177
336,000000	65,586128
335,000000	64,096436
334,000000	62,705566
333,000000	61,138288
332,000000	59,255880
331,000000	57,260286
330,000000	55,135644
329,000000	53,140761
328,000000	51,063601
327,000000	48,830046
326,000000	46,528509
325,000000	44,139109
324,000000	41,566088
323,000000	39,111862
322,000000	36,715563
321,000000	34,194318
320,000000	31,705435
319,000000	29,135246
318,000000	26,393803
317,000000	23,656746
316,000000	21,117197
315,000000	18,629503
314,000000	16,122942
313,000000	13,834257
312,000000	11,709720
311,000000	9,725062
310,000000	8,032869
309,000000	6,472598
308,000000	5,087386
307,000000	3,902368
306,000000	2,894901
305,000000	1,980565
304,000000	1,304516
303,000000	0,706225
302,000000	0,253285
301,000000	0,009078
300,000000	0,008861
299,000000	0,008682
298,000000	0,008373
297,000000	0,008202
296,000000	0,008229
295,000000	0,008390
294,000000	0,008411
293,000000	0,008378
292,000000	0,008460
291,000000	0,008444
290,000000	0,008217
289,000000	0,008351
288,000000	0,008174
287,000000	0,008436
286,000000	0,008506
285,000000	0,008051
284,000000	0,007871
283,000000	0,008221
282,000000	0,008277
281,000000	0,008058
280,000000	0,007787
279,000000	0,008021
278,000000	0,008019
277,000000	0,007983
276,000000	0,007745
275,000000	0,007305
274,000000	0,007290
273,000000	0,007400
272,000000	0,007331
271,000000	0,007063
270,000000	0,006763
269,000000	0,006783
268,000000	0,006433
267,000000	0,006149
266,000000	0,006024
265,000000	0,005952
264,000000	0,005738
263,000000	0,005630
262,000000	0,005229
261,000000	0,005096
260,000000	0,005089
259,000000	0,004927
258,000000	0,004889
257,000000	0,004748
256,000000	0,004605
255,000000	0,004478
254,000000	0,004350
253,000000	0,004149
252,000000	0,004119
251,000000	0,004006
250,000000	0,003833
249,000000	0,003674
248,000000	0,003641
247,000000	0,003612
246,000000	0,003638
245,000000	0,003627
244,000000	0,003531
243,000000	0,003351
242,000000	0,003447
241,000000	0,003352
240,000000	0,003315
239,000000	0,003335
238,000000	0,003181
237,000000	0,003246
236,000000	0,003165
235,000000	0,003083
234,000000	0,003113
233,000000	0,003311
232,000000	0,003264
231,000000	0,003342
230,000000	0,003399
229,000000	0,003425
228,000000	0,003466
227,000000	0,003555
226,000000	0,003406
225,000000	0,003497
224,000000	0,003620
223,000000	0,003539
222,000000	0,003615
221,000000	0,003626
220,000000	0,003845
219,000000	0,004088
218,000000	0,004164
217,000000	0,004043
216,000000	0,004214
215,000000	0,004306
214,000000	0,004380
213,000000	0,004493
212,000000	0,004644
211,000000	0,004755
210,000000	0,005073
209,000000	0,005428
208,000000	0,005737
207,000000	0,005994
206,000000	0,005973
205,000000	0,006433
204,000000	0,006952
203,000000	0,007366
202,000000	0,007828
201,000000	0,008678
200,000000	0,009387
