PE UV       SUBTECH     SPECTRUM    ASCII       PEDS        4.00        
   -1
red30.asc
24/07/02
10:20:39.00
24/07/02
10:20:39.00
student

200,000000
1
Lambda 365
365K7092207
  / Unknown

480
1
0,5
0
0
Both on
1
1
1
None
0
0
0
0
 
 
0
0
0
0
0
 
 
 
0
 
0
400
0
 
0
 
 
 
0
0
0
 
0
 
 
 
0
 
 
0
0
0
0
0
 
 
 
 
0
0


0
0
#HDR
-1
-1
#GR
nm
%T
1.0
0.0
1100,000000
-1,000000
901
8
84,654299
0,003067
#DATA
1100,000000	72,568712
1099,000000	72,556181
1098,000000	72,560936
1097,000000	72,581138
1096,000000	72,601283
1095,000000	72,593193
1094,000000	72,572601
1093,000000	72,568842
1092,000000	72,576505
1091,000000	72,582608
1090,000000	72,569225
1089,000000	72,550059
1088,000000	72,587380
1087,000000	72,581825
1086,000000	72,545049
1085,000000	72,554360
1084,000000	72,563913
1083,000000	72,568101
1082,000000	72,576349
1081,000000	72,573768
1080,000000	72,540886
1079,000000	72,558069
1078,000000	72,567148
1077,000000	72,560162
1076,000000	72,547747
1075,000000	72,545749
1074,000000	72,546377
1073,000000	72,548959
1072,000000	72,561159
1071,000000	72,577237
1070,000000	72,586237
1069,000000	72,571637
1068,000000	72,552797
1067,000000	72,562882
1066,000000	72,575210
1065,000000	72,564540
1064,000000	72,589258
1063,000000	72,574457
1062,000000	72,561709
1061,000000	72,548648
1060,000000	72,533723
1059,000000	72,554235
1058,000000	72,574999
1057,000000	72,584321
1056,000000	72,590739
1055,000000	72,600376
1054,000000	72,602497
1053,000000	72,588969
1052,000000	72,576359
1051,000000	72,576397
1050,000000	72,590205
1049,000000	72,596324
1048,000000	72,598780
1047,000000	72,600565
1046,000000	72,608099
1045,000000	72,616628
1044,000000	72,598825
1043,000000	72,599922
1042,000000	72,606922
1041,000000	72,618122
1040,000000	72,627932
1039,000000	72,623336
1038,000000	72,618673
1037,000000	72,617995
1036,000000	72,622264
1035,000000	72,630492
1034,000000	72,639593
1033,000000	72,633967
1032,000000	72,646191
1031,000000	72,660170
1030,000000	72,668385
1029,000000	72,672833
1028,000000	72,655086
1027,000000	72,661174
1026,000000	72,668545
1025,000000	72,673064
1024,000000	72,684900
1023,000000	72,670573
1022,000000	72,675210
1021,000000	72,679048
1020,000000	72,679173
1019,000000	72,683688
1018,000000	72,696971
1017,000000	72,697144
1016,000000	72,698573
1015,000000	72,702710
1014,000000	72,705099
1013,000000	72,714415
1012,000000	72,718392
1011,000000	72,725173
1010,000000	72,731738
1009,000000	72,732540
1008,000000	72,743352
1007,000000	72,755348
1006,000000	72,757150
1005,000000	72,757472
1004,000000	72,767560
1003,000000	72,766930
1002,000000	72,771525
1001,000000	72,787318
1000,000000	72,801497
999,000000	72,801714
998,000000	72,805147
997,000000	72,812230
996,000000	72,815563
995,000000	72,817233
994,000000	72,820858
993,000000	72,827862
992,000000	72,836335
991,000000	72,850373
990,000000	72,858024
989,000000	72,854001
988,000000	72,862113
987,000000	72,873619
986,000000	72,879077
985,000000	72,885430
984,000000	72,896215
983,000000	72,901208
982,000000	72,903628
981,000000	72,911439
980,000000	72,921583
979,000000	72,933032
978,000000	72,951363
977,000000	72,949371
976,000000	72,952240
975,000000	72,961952
974,000000	72,976814
973,000000	72,991761
972,000000	72,995605
971,000000	73,007216
970,000000	73,016728
969,000000	73,022095
968,000000	73,032883
967,000000	73,040533
966,000000	73,056429
965,000000	73,069370
964,000000	73,075055
963,000000	73,076875
962,000000	73,091549
961,000000	73,109425
960,000000	73,124264
959,000000	73,131749
958,000000	73,130279
957,000000	73,155375
956,000000	73,171132
955,000000	73,186262
954,000000	73,196727
953,000000	73,192236
952,000000	73,212136
951,000000	73,227464
950,000000	73,244390
949,000000	73,256679
948,000000	73,255563
947,000000	73,280499
946,000000	73,285850
945,000000	73,297555
944,000000	73,316380
943,000000	73,332707
942,000000	73,348984
941,000000	73,365188
940,000000	73,367862
939,000000	73,375050
938,000000	73,406460
937,000000	73,415263
936,000000	73,431301
935,000000	73,447835
934,000000	73,462788
933,000000	73,476331
932,000000	73,493627
931,000000	73,504562
930,000000	73,528271
929,000000	73,553395
928,000000	73,564802
927,000000	73,558337
926,000000	73,581286
925,000000	73,602525
924,000000	73,620707
923,000000	73,638591
922,000000	73,656147
921,000000	73,661825
920,000000	73,663821
919,000000	73,675900
918,000000	73,702391
917,000000	73,722578
916,000000	73,741230
915,000000	73,759134
914,000000	73,778005
913,000000	73,801167
912,000000	73,835207
911,000000	73,834051
910,000000	73,853105
909,000000	73,873490
908,000000	73,887978
907,000000	73,915877
906,000000	73,933242
905,000000	73,959526
904,000000	73,979482
903,000000	73,993193
902,000000	74,022372
901,000000	74,037562
900,000000	74,044707
899,000000	74,069698
898,000000	74,105279
897,000000	74,109955
896,000000	74,143662
895,000000	74,165624
894,000000	74,185418
893,000000	74,209293
892,000000	74,239924
891,000000	74,251347
890,000000	74,278561
889,000000	74,309701
888,000000	74,335011
887,000000	74,347955
886,000000	74,379704
885,000000	74,403634
884,000000	74,425518
883,000000	74,449407
882,000000	74,475504
881,000000	74,465876
880,000000	74,511532
879,000000	74,551974
878,000000	74,578983
877,000000	74,604481
876,000000	74,618767
875,000000	74,644234
874,000000	74,666381
873,000000	74,696500
872,000000	74,746471
871,000000	74,773530
870,000000	74,776362
869,000000	74,810740
868,000000	74,851618
867,000000	74,865636
866,000000	74,892983
865,000000	74,926465
864,000000	74,946673
863,000000	74,968461
862,000000	75,004884
861,000000	75,032971
860,000000	75,060809
859,000000	75,080598
858,000000	75,110729
857,000000	75,160266
856,000000	75,196858
855,000000	75,220753
854,000000	75,252453
853,000000	75,285116
852,000000	75,314141
851,000000	75,348700
850,000000	75,355689
849,000000	75,394222
848,000000	75,436415
847,000000	75,467261
846,000000	75,511651
845,000000	75,556194
844,000000	75,596929
843,000000	75,632917
842,000000	75,664500
841,000000	75,693517
840,000000	75,741849
839,000000	75,767653
838,000000	75,802856
837,000000	75,846623
836,000000	75,854401
835,000000	75,920679
834,000000	75,964901
833,000000	75,996489
832,000000	76,025671
831,000000	76,062161
830,000000	76,106237
829,000000	76,138022
828,000000	76,171972
827,000000	76,214157
826,000000	76,263161
825,000000	76,299670
824,000000	76,334268
823,000000	76,364139
822,000000	76,391044
821,000000	76,421371
820,000000	76,489975
819,000000	76,550356
818,000000	76,593526
817,000000	76,622098
816,000000	76,646744
815,000000	76,696494
814,000000	76,737320
813,000000	76,779068
812,000000	76,829377
811,000000	76,889778
810,000000	76,919270
809,000000	76,952617
808,000000	77,006618
807,000000	77,052147
806,000000	77,064883
805,000000	77,138772
804,000000	77,195762
803,000000	77,243462
802,000000	77,291714
801,000000	77,344216
800,000000	77,381152
799,000000	77,441489
798,000000	77,492155
797,000000	77,531370
796,000000	77,566738
795,000000	77,617213
794,000000	77,659485
793,000000	77,694591
792,000000	77,744419
791,000000	77,805754
790,000000	77,839007
789,000000	77,884850
788,000000	77,942662
787,000000	77,992400
786,000000	78,031413
785,000000	78,073772
784,000000	78,135420
783,000000	78,195971
782,000000	78,247142
781,000000	78,297903
780,000000	78,363902
779,000000	78,417458
778,000000	78,457919
777,000000	78,498177
776,000000	78,537800
775,000000	78,574934
774,000000	78,630686
773,000000	78,681217
772,000000	78,749605
771,000000	78,814109
770,000000	78,856295
769,000000	78,910954
768,000000	78,963630
767,000000	79,014630
766,000000	79,062875
765,000000	79,111484
764,000000	79,174293
763,000000	79,228137
762,000000	79,281536
761,000000	79,338183
760,000000	79,393815
759,000000	79,432013
758,000000	79,484977
757,000000	79,539059
756,000000	79,590068
755,000000	79,641373
754,000000	79,702581
753,000000	79,739524
752,000000	79,781480
751,000000	79,838424
750,000000	79,896165
749,000000	79,929592
748,000000	79,993395
747,000000	80,035997
746,000000	80,094111
745,000000	80,157574
744,000000	80,202186
743,000000	80,243819
742,000000	80,314244
741,000000	80,372906
740,000000	80,421880
739,000000	80,473981
738,000000	80,539813
737,000000	80,581341
736,000000	80,631811
735,000000	80,685186
734,000000	80,732963
733,000000	80,775295
732,000000	80,822652
731,000000	80,884896
730,000000	80,943938
729,000000	80,991697
728,000000	81,038666
727,000000	81,095122
726,000000	81,146752
725,000000	81,198497
724,000000	81,252646
723,000000	81,307821
722,000000	81,341140
721,000000	81,385163
720,000000	81,438297
719,000000	81,495406
718,000000	81,549173
717,000000	81,593556
716,000000	81,650683
715,000000	81,684832
714,000000	81,720768
713,000000	81,793418
712,000000	81,841815
711,000000	81,895648
710,000000	81,944922
709,000000	81,996353
708,000000	82,052930
707,000000	82,087085
706,000000	82,129598
705,000000	82,180621
704,000000	82,235387
703,000000	82,288210
702,000000	82,333086
701,000000	82,380515
700,000000	82,425065
699,000000	82,474202
698,000000	82,527648
697,000000	82,572427
696,000000	82,635054
695,000000	82,686719
694,000000	82,730970
693,000000	82,776455
692,000000	82,834894
691,000000	82,887412
690,000000	82,933909
689,000000	82,984242
688,000000	83,039404
687,000000	83,094820
686,000000	83,145412
685,000000	83,194362
684,000000	83,262340
683,000000	83,334295
682,000000	83,390651
681,000000	83,471382
680,000000	83,544223
679,000000	83,615223
678,000000	83,688980
677,000000	83,767852
676,000000	83,848379
675,000000	83,922094
674,000000	84,004913
673,000000	84,099278
672,000000	84,199956
671,000000	84,290014
670,000000	84,364707
669,000000	84,449083
668,000000	84,527747
667,000000	84,587929
666,000000	84,624473
665,000000	84,653810
664,000000	84,654299
663,000000	84,624494
662,000000	84,571418
661,000000	84,518221
660,000000	84,448757
659,000000	84,359974
658,000000	84,279691
657,000000	84,212057
656,000000	84,126962
655,000000	84,042905
654,000000	84,039221
653,000000	84,054494
652,000000	84,068958
651,000000	84,094064
650,000000	84,114069
649,000000	84,117156
648,000000	84,132962
647,000000	84,151572
646,000000	84,150813
645,000000	84,160213
644,000000	84,147080
643,000000	84,145160
642,000000	84,145802
641,000000	84,135181
640,000000	84,140103
639,000000	84,144079
638,000000	84,131234
637,000000	84,113346
636,000000	84,104352
635,000000	84,108129
634,000000	84,086022
633,000000	84,054107
632,000000	84,013628
631,000000	83,968835
630,000000	83,931685
629,000000	83,912482
628,000000	83,878084
627,000000	83,823611
626,000000	83,755217
625,000000	83,689752
624,000000	83,629089
623,000000	83,541772
622,000000	83,450228
621,000000	83,355097
620,000000	83,243593
619,000000	83,144796
618,000000	83,032946
617,000000	82,885097
616,000000	82,717142
615,000000	82,555933
614,000000	82,372751
613,000000	82,174030
612,000000	81,956516
611,000000	81,721176
610,000000	81,469003
609,000000	81,191634
608,000000	80,913088
607,000000	80,610042
606,000000	80,282266
605,000000	79,931341
604,000000	79,551405
603,000000	79,164528
602,000000	78,753963
601,000000	78,316944
600,000000	77,852852
599,000000	77,362221
598,000000	76,846470
597,000000	76,289899
596,000000	75,708924
595,000000	75,117285
594,000000	74,524073
593,000000	73,897342
592,000000	73,244173
591,000000	72,579466
590,000000	71,904174
589,000000	71,210473
588,000000	70,487284
587,000000	69,761664
586,000000	69,005255
585,000000	68,224858
584,000000	67,435576
583,000000	66,617278
582,000000	65,803406
581,000000	64,985562
580,000000	64,159732
579,000000	63,324273
578,000000	62,488458
577,000000	61,650652
576,000000	60,829972
575,000000	60,011158
574,000000	59,187159
573,000000	58,369383
572,000000	57,592547
571,000000	56,800542
570,000000	56,001273
569,000000	55,202690
568,000000	54,405958
567,000000	53,618469
566,000000	52,824967
565,000000	52,030737
564,000000	51,243966
563,000000	50,473203
562,000000	49,718388
561,000000	49,008379
560,000000	48,293256
559,000000	47,583498
558,000000	46,910039
557,000000	46,224645
556,000000	45,558556
555,000000	44,908716
554,000000	44,266518
553,000000	43,622191
552,000000	42,972051
551,000000	42,350758
550,000000	41,725474
549,000000	41,122775
548,000000	40,538014
547,000000	39,960782
546,000000	39,413005
545,000000	38,864267
544,000000	38,329741
543,000000	37,815250
542,000000	37,303415
541,000000	36,836573
540,000000	36,370230
539,000000	35,909802
538,000000	35,457276
537,000000	35,008634
536,000000	34,570451
535,000000	34,149150
534,000000	33,727423
533,000000	33,312924
532,000000	32,927152
531,000000	32,550807
530,000000	32,182093
529,000000	31,829341
528,000000	31,490710
527,000000	31,158899
526,000000	30,828430
525,000000	30,524660
524,000000	30,233608
523,000000	29,945172
522,000000	29,655804
521,000000	29,391044
520,000000	29,132369
519,000000	28,883477
518,000000	28,639259
517,000000	28,397062
516,000000	28,175578
515,000000	27,974244
514,000000	27,765196
513,000000	27,567064
512,000000	27,388190
511,000000	27,206870
510,000000	27,060021
509,000000	26,915554
508,000000	26,784330
507,000000	26,664342
506,000000	26,534030
505,000000	26,419220
504,000000	26,331605
503,000000	26,243446
502,000000	26,157979
501,000000	26,104389
500,000000	26,042591
499,000000	26,005423
498,000000	25,984552
497,000000	25,970062
496,000000	25,953018
495,000000	25,952953
494,000000	25,972902
493,000000	25,991219
492,000000	26,018664
491,000000	26,073269
490,000000	26,143410
489,000000	26,205673
488,000000	26,277483
487,000000	26,368623
486,000000	26,482116
485,000000	26,605753
484,000000	26,722007
483,000000	26,862427
482,000000	27,019530
481,000000	27,184336
480,000000	27,360521
479,000000	27,542200
478,000000	27,736087
477,000000	27,944448
476,000000	28,166035
475,000000	28,395494
474,000000	28,596791
473,000000	28,838847
472,000000	29,085195
471,000000	29,328275
470,000000	29,597420
469,000000	29,861985
468,000000	30,145226
467,000000	30,429072
466,000000	30,720647
465,000000	31,053269
464,000000	31,340535
463,000000	31,673241
462,000000	32,016875
461,000000	32,360473
460,000000	32,738387
459,000000	33,102963
458,000000	33,491387
457,000000	33,891868
456,000000	34,294634
455,000000	34,705871
454,000000	35,126871
453,000000	35,571220
452,000000	36,019252
451,000000	36,456091
450,000000	36,936693
449,000000	37,463371
448,000000	37,983387
447,000000	38,503685
446,000000	39,033461
445,000000	39,571216
444,000000	40,113210
443,000000	40,671403
442,000000	41,211316
441,000000	41,724701
440,000000	42,231419
439,000000	42,811075
438,000000	43,375246
437,000000	43,917118
436,000000	44,484303
435,000000	45,083151
434,000000	45,612108
433,000000	46,204614
432,000000	46,793261
431,000000	47,396815
430,000000	48,005206
429,000000	48,586515
428,000000	49,144239
427,000000	49,663683
426,000000	50,205913
425,000000	50,765888
424,000000	51,325346
423,000000	51,879032
422,000000	52,336022
421,000000	52,875596
420,000000	53,413128
419,000000	53,914799
418,000000	54,417877
417,000000	54,974866
416,000000	55,454850
415,000000	55,965743
414,000000	56,507047
413,000000	57,027956
412,000000	57,409650
411,000000	57,815990
410,000000	58,199764
409,000000	58,596689
408,000000	59,027127
407,000000	59,325075
406,000000	59,610472
405,000000	59,867696
404,000000	60,153785
403,000000	60,483707
402,000000	60,676118
401,000000	60,889128
400,000000	60,744116
399,000000	59,799358
398,000000	59,806950
397,000000	59,723016
396,000000	59,873185
395,000000	60,426281
394,000000	60,712818
393,000000	60,609411
392,000000	60,647258
391,000000	60,592180
390,000000	60,448274
389,000000	60,750533
388,000000	61,040260
387,000000	60,127742
386,000000	60,190502
385,000000	60,169507
384,000000	59,865978
383,000000	59,476189
382,000000	59,491706
381,000000	59,637370
380,000000	59,876774
379,000000	59,858316
378,000000	59,722135
377,000000	60,000593
376,000000	60,045235
375,000000	59,918392
374,000000	59,881105
373,000000	59,995553
372,000000	60,139586
371,000000	60,105471
370,000000	60,137116
369,000000	60,025964
368,000000	59,759740
367,000000	59,484345
366,000000	58,884640
365,000000	58,555436
364,000000	58,290990
363,000000	57,856010
362,000000	56,995427
361,000000	56,531104
360,000000	55,555120
359,000000	54,745732
358,000000	54,031632
357,000000	53,060103
356,000000	51,939524
355,000000	50,996444
354,000000	50,028964
353,000000	48,907585
352,000000	47,620441
351,000000	46,757599
350,000000	45,348606
349,000000	43,931630
348,000000	42,645328
347,000000	41,438481
346,000000	40,062950
345,000000	38,548409
344,000000	37,044123
343,000000	35,586701
342,000000	34,140133
341,000000	32,611564
340,000000	31,058563
339,000000	29,411407
338,000000	27,694768
337,000000	25,965906
336,000000	24,261703
335,000000	22,559491
334,000000	20,866766
333,000000	19,101876
332,000000	17,257546
331,000000	15,491230
330,000000	13,854602
329,000000	12,229362
328,000000	10,684234
327,000000	9,231739
326,000000	7,818478
325,000000	6,684434
324,000000	5,337592
323,000000	4,208528
322,000000	3,307068
321,000000	2,446852
320,000000	1,808307
319,000000	1,270412
318,000000	0,713520
317,000000	0,246370
316,000000	0,011371
315,000000	0,011374
314,000000	0,011237
313,000000	0,011025
312,000000	0,010864
311,000000	0,010680
310,000000	0,009883
309,000000	0,009915
308,000000	0,009631
307,000000	0,009409
306,000000	0,009437
305,000000	0,009510
304,000000	0,009296
303,000000	0,009188
302,000000	0,008994
301,000000	0,008860
300,000000	0,009130
299,000000	0,008951
298,000000	0,008755
297,000000	0,008592
296,000000	0,008555
295,000000	0,008661
294,000000	0,008265
293,000000	0,008148
292,000000	0,008186
291,000000	0,008377
290,000000	0,008672
289,000000	0,008774
288,000000	0,008395
287,000000	0,008380
286,000000	0,008484
285,000000	0,008398
284,000000	0,007885
283,000000	0,008206
282,000000	0,008178
281,000000	0,007925
280,000000	0,007743
279,000000	0,007900
278,000000	0,007995
277,000000	0,007977
276,000000	0,007816
275,000000	0,007496
274,000000	0,007012
273,000000	0,007193
272,000000	0,007265
271,000000	0,006951
270,000000	0,006511
269,000000	0,006817
268,000000	0,006194
267,000000	0,005985
266,000000	0,005921
265,000000	0,005863
264,000000	0,005759
263,000000	0,005258
262,000000	0,005050
261,000000	0,005022
260,000000	0,004972
259,000000	0,004760
258,000000	0,004677
257,000000	0,004586
256,000000	0,004529
255,000000	0,004420
254,000000	0,004229
253,000000	0,004087
252,000000	0,003909
251,000000	0,003867
250,000000	0,003857
249,000000	0,003823
248,000000	0,003798
247,000000	0,003675
246,000000	0,003604
245,000000	0,003568
244,000000	0,003517
243,000000	0,003359
242,000000	0,003405
241,000000	0,003370
240,000000	0,003318
239,000000	0,003283
238,000000	0,003263
237,000000	0,003114
236,000000	0,003188
235,000000	0,003162
234,000000	0,003067
233,000000	0,003136
232,000000	0,003333
231,000000	0,003371
230,000000	0,003305
229,000000	0,003239
228,000000	0,003275
227,000000	0,003335
226,000000	0,003540
225,000000	0,003548
224,000000	0,003489
223,000000	0,003564
222,000000	0,003755
221,000000	0,003823
220,000000	0,003919
219,000000	0,004023
218,000000	0,004086
217,000000	0,004054
216,000000	0,004307
215,000000	0,004445
214,000000	0,004590
213,000000	0,004744
212,000000	0,004660
211,000000	0,004847
210,000000	0,005107
209,000000	0,005368
208,000000	0,005567
207,000000	0,005655
206,000000	0,006143
205,000000	0,006717
204,000000	0,006963
203,000000	0,007033
202,000000	0,007551
201,000000	0,008872
200,000000	0,009491
