PE UV       SUBTECH     SPECTRUM    ASCII       PEDS        4.00        
   -1
white15.asc
24/07/02
10:48:05.00
24/07/02
10:48:05.00
student

200,000000
1
Lambda 365
365K7092207
  / Unknown

480
1
0,5
0
0
Both on
1
1
1
None
0
0
0
0
 
 
0
0
0
0
0
 
 
 
0
 
0
400
0
 
0
 
 
 
0
0
0
 
0
 
 
 
0
 
 
0
0
0
0
0
 
 
 
 
0
0


0
0
#HDR
-1
-1
#GR
nm
%T
1.0
0.0
1100,000000
-1,000000
901
8
88,744810
0,003129
#DATA
1100,000000	86,679095
1099,000000	86,710896
1098,000000	86,720264
1097,000000	86,714242
1096,000000	86,708722
1095,000000	86,727317
1094,000000	86,765567
1093,000000	86,772953
1092,000000	86,781424
1091,000000	86,790865
1090,000000	86,776755
1089,000000	86,764423
1088,000000	86,800932
1087,000000	86,802324
1086,000000	86,787866
1085,000000	86,835046
1084,000000	86,853434
1083,000000	86,872879
1082,000000	86,868817
1081,000000	86,849965
1080,000000	86,841572
1079,000000	86,858615
1078,000000	86,902875
1077,000000	86,905879
1076,000000	86,885979
1075,000000	86,891913
1074,000000	86,920873
1073,000000	86,925127
1072,000000	86,944712
1071,000000	86,962981
1070,000000	86,955654
1069,000000	86,970664
1068,000000	86,960463
1067,000000	86,961530
1066,000000	86,971622
1065,000000	86,980844
1064,000000	86,992516
1063,000000	86,987729
1062,000000	86,983860
1061,000000	86,977398
1060,000000	86,967949
1059,000000	86,984011
1058,000000	87,005687
1057,000000	87,025270
1056,000000	87,051660
1055,000000	87,080759
1054,000000	87,059966
1053,000000	87,060359
1052,000000	87,060582
1051,000000	87,058527
1050,000000	87,057016
1049,000000	87,065397
1048,000000	87,087009
1047,000000	87,093654
1046,000000	87,103154
1045,000000	87,118942
1044,000000	87,108871
1043,000000	87,115936
1042,000000	87,117112
1041,000000	87,122121
1040,000000	87,130958
1039,000000	87,125462
1038,000000	87,129441
1037,000000	87,137010
1036,000000	87,145357
1035,000000	87,150646
1034,000000	87,147550
1033,000000	87,153976
1032,000000	87,163945
1031,000000	87,169646
1030,000000	87,172402
1029,000000	87,182591
1028,000000	87,169564
1027,000000	87,177114
1026,000000	87,182424
1025,000000	87,183917
1024,000000	87,196576
1023,000000	87,189657
1022,000000	87,191732
1021,000000	87,198110
1020,000000	87,203231
1019,000000	87,202378
1018,000000	87,220542
1017,000000	87,216602
1016,000000	87,218870
1015,000000	87,224992
1014,000000	87,218650
1013,000000	87,215757
1012,000000	87,229784
1011,000000	87,234432
1010,000000	87,232777
1009,000000	87,238858
1008,000000	87,249982
1007,000000	87,249136
1006,000000	87,247502
1005,000000	87,245699
1004,000000	87,242526
1003,000000	87,248618
1002,000000	87,255841
1001,000000	87,265874
1000,000000	87,270059
999,000000	87,262936
998,000000	87,269749
997,000000	87,277272
996,000000	87,276675
995,000000	87,275080
994,000000	87,278806
993,000000	87,276582
992,000000	87,279704
991,000000	87,289094
990,000000	87,293817
989,000000	87,288294
988,000000	87,289675
987,000000	87,290161
986,000000	87,292864
985,000000	87,296674
984,000000	87,300853
983,000000	87,307138
982,000000	87,314681
981,000000	87,309524
980,000000	87,313635
979,000000	87,330959
978,000000	87,322416
977,000000	87,318350
976,000000	87,321185
975,000000	87,323023
974,000000	87,323059
973,000000	87,333249
972,000000	87,328096
971,000000	87,330024
970,000000	87,333689
969,000000	87,337402
968,000000	87,345700
967,000000	87,351565
966,000000	87,357389
965,000000	87,361072
964,000000	87,360331
963,000000	87,352824
962,000000	87,351136
961,000000	87,356044
960,000000	87,360478
959,000000	87,361756
958,000000	87,361223
957,000000	87,364376
956,000000	87,369044
955,000000	87,376285
954,000000	87,383327
953,000000	87,385326
952,000000	87,388535
951,000000	87,393491
950,000000	87,401023
949,000000	87,402856
948,000000	87,390195
947,000000	87,405229
946,000000	87,394284
945,000000	87,400839
944,000000	87,415954
943,000000	87,411672
942,000000	87,407002
941,000000	87,412183
940,000000	87,415877
939,000000	87,419133
938,000000	87,424770
937,000000	87,418975
936,000000	87,425881
935,000000	87,426276
934,000000	87,428520
933,000000	87,440486
932,000000	87,427141
931,000000	87,440597
930,000000	87,448913
929,000000	87,455185
928,000000	87,462179
927,000000	87,439665
926,000000	87,444058
925,000000	87,450205
924,000000	87,458390
923,000000	87,469231
922,000000	87,471275
921,000000	87,466471
920,000000	87,464387
919,000000	87,465337
918,000000	87,468150
917,000000	87,471131
916,000000	87,487846
915,000000	87,493483
914,000000	87,500822
913,000000	87,515564
912,000000	87,522318
911,000000	87,494514
910,000000	87,504456
909,000000	87,513160
908,000000	87,506769
907,000000	87,523695
906,000000	87,528906
905,000000	87,543624
904,000000	87,551774
903,000000	87,549323
902,000000	87,549526
901,000000	87,542301
900,000000	87,540220
899,000000	87,550707
898,000000	87,561310
897,000000	87,539987
896,000000	87,559363
895,000000	87,570007
894,000000	87,575079
893,000000	87,579431
892,000000	87,588574
891,000000	87,574908
890,000000	87,587222
889,000000	87,603727
888,000000	87,607310
887,000000	87,587705
886,000000	87,610823
885,000000	87,612704
884,000000	87,613679
883,000000	87,622746
882,000000	87,639108
881,000000	87,613331
880,000000	87,641651
879,000000	87,654791
878,000000	87,654509
877,000000	87,666387
876,000000	87,650809
875,000000	87,678074
874,000000	87,680146
873,000000	87,670829
872,000000	87,685671
871,000000	87,713417
870,000000	87,690824
869,000000	87,692519
868,000000	87,700095
867,000000	87,685021
866,000000	87,698019
865,000000	87,725960
864,000000	87,729086
863,000000	87,717329
862,000000	87,711342
861,000000	87,730794
860,000000	87,746173
859,000000	87,756007
858,000000	87,763148
857,000000	87,769892
856,000000	87,773601
855,000000	87,772708
854,000000	87,784638
853,000000	87,792161
852,000000	87,788623
851,000000	87,803671
850,000000	87,796937
849,000000	87,803227
848,000000	87,816292
847,000000	87,830257
846,000000	87,847166
845,000000	87,855277
844,000000	87,854966
843,000000	87,866311
842,000000	87,890118
841,000000	87,895504
840,000000	87,897980
839,000000	87,895830
838,000000	87,900382
837,000000	87,906506
836,000000	87,888102
835,000000	87,927392
834,000000	87,917462
833,000000	87,923070
832,000000	87,944838
831,000000	87,919506
830,000000	87,965132
829,000000	87,967142
828,000000	87,970190
827,000000	87,981928
826,000000	87,981789
825,000000	87,997842
824,000000	88,008708
823,000000	88,007607
822,000000	88,004120
821,000000	88,016524
820,000000	88,028727
819,000000	88,062973
818,000000	88,077118
817,000000	88,063238
816,000000	88,036840
815,000000	88,077136
814,000000	88,086973
813,000000	88,102735
812,000000	88,110105
811,000000	88,087803
810,000000	88,124238
809,000000	88,121878
808,000000	88,140847
807,000000	88,160823
806,000000	88,151078
805,000000	88,173390
804,000000	88,173377
803,000000	88,176824
802,000000	88,189588
801,000000	88,206277
800,000000	88,198011
799,000000	88,222825
798,000000	88,228667
797,000000	88,231684
796,000000	88,242969
795,000000	88,243507
794,000000	88,274861
793,000000	88,269390
792,000000	88,273527
791,000000	88,300325
790,000000	88,306686
789,000000	88,302175
788,000000	88,321540
787,000000	88,334090
786,000000	88,334172
785,000000	88,340495
784,000000	88,376851
783,000000	88,386413
782,000000	88,391295
781,000000	88,396727
780,000000	88,399684
779,000000	88,420051
778,000000	88,419810
777,000000	88,422456
776,000000	88,427953
775,000000	88,430675
774,000000	88,446834
773,000000	88,447327
772,000000	88,471810
771,000000	88,499553
770,000000	88,508053
769,000000	88,523179
768,000000	88,510601
767,000000	88,499819
766,000000	88,501651
765,000000	88,516196
764,000000	88,525225
763,000000	88,547749
762,000000	88,561521
761,000000	88,574884
760,000000	88,591365
759,000000	88,603404
758,000000	88,595517
757,000000	88,602144
756,000000	88,615143
755,000000	88,627319
754,000000	88,634136
753,000000	88,650961
752,000000	88,646953
751,000000	88,644648
750,000000	88,647933
749,000000	88,650020
748,000000	88,669784
747,000000	88,670225
746,000000	88,680938
745,000000	88,693840
744,000000	88,691502
743,000000	88,701503
742,000000	88,707870
741,000000	88,711768
740,000000	88,717315
739,000000	88,728331
738,000000	88,744810
737,000000	88,728565
736,000000	88,728213
735,000000	88,733714
734,000000	88,733466
733,000000	88,734207
732,000000	88,718732
731,000000	88,724308
730,000000	88,726424
729,000000	88,717675
728,000000	88,724615
727,000000	88,725799
726,000000	88,714361
725,000000	88,707758
724,000000	88,707331
723,000000	88,697889
722,000000	88,674073
721,000000	88,658412
720,000000	88,646635
719,000000	88,635681
718,000000	88,622527
717,000000	88,594202
716,000000	88,575059
715,000000	88,547168
714,000000	88,510555
713,000000	88,473061
712,000000	88,444375
711,000000	88,405525
710,000000	88,354041
709,000000	88,309384
708,000000	88,280628
707,000000	88,215660
706,000000	88,133382
705,000000	88,075493
704,000000	88,019283
703,000000	87,943182
702,000000	87,849982
701,000000	87,775219
700,000000	87,683000
699,000000	87,574397
698,000000	87,456955
697,000000	87,343003
696,000000	87,223732
695,000000	87,077214
694,000000	86,932882
693,000000	86,795991
692,000000	86,647776
691,000000	86,482597
690,000000	86,299159
689,000000	86,109848
688,000000	85,917856
687,000000	85,720442
686,000000	85,508097
685,000000	85,290416
684,000000	85,079314
683,000000	84,866542
682,000000	84,638889
681,000000	84,395306
680,000000	84,158554
679,000000	83,927751
678,000000	83,694684
677,000000	83,455267
676,000000	83,227427
675,000000	82,981258
674,000000	82,746204
673,000000	82,530685
672,000000	82,327108
671,000000	82,095908
670,000000	81,890129
669,000000	81,699200
668,000000	81,513329
667,000000	81,323479
666,000000	81,118158
665,000000	80,934910
664,000000	80,746469
663,000000	80,561013
662,000000	80,382826
661,000000	80,207220
660,000000	80,037069
659,000000	79,876526
658,000000	79,716184
657,000000	79,558702
656,000000	79,421597
655,000000	79,290020
654,000000	79,181505
653,000000	79,091223
652,000000	79,013101
651,000000	78,943398
650,000000	78,868246
649,000000	78,817962
648,000000	78,780712
647,000000	78,747725
646,000000	78,713403
645,000000	78,691098
644,000000	78,674139
643,000000	78,664063
642,000000	78,666324
641,000000	78,684418
640,000000	78,708803
639,000000	78,738246
638,000000	78,760114
637,000000	78,785159
636,000000	78,825391
635,000000	78,883930
634,000000	78,921865
633,000000	78,959655
632,000000	78,993539
631,000000	79,024996
630,000000	79,069478
629,000000	79,116261
628,000000	79,160695
627,000000	79,192560
626,000000	79,209985
625,000000	79,221130
624,000000	79,263640
623,000000	79,277097
622,000000	79,280367
621,000000	79,284425
620,000000	79,293100
619,000000	79,292262
618,000000	79,298798
617,000000	79,282631
616,000000	79,257583
615,000000	79,250862
614,000000	79,239083
613,000000	79,208057
612,000000	79,175994
611,000000	79,142724
610,000000	79,103933
609,000000	79,057839
608,000000	79,012401
607,000000	78,976620
606,000000	78,941197
605,000000	78,893332
604,000000	78,818245
603,000000	78,766633
602,000000	78,702898
601,000000	78,637215
600,000000	78,575189
599,000000	78,509912
598,000000	78,469780
597,000000	78,412803
596,000000	78,361849
595,000000	78,328038
594,000000	78,309526
593,000000	78,322122
592,000000	78,349738
591,000000	78,405873
590,000000	78,488506
589,000000	78,587438
588,000000	78,718400
587,000000	78,888739
586,000000	79,077405
585,000000	79,280249
584,000000	79,501480
583,000000	79,765542
582,000000	80,018113
581,000000	80,266026
580,000000	80,523596
579,000000	80,793479
578,000000	81,030192
577,000000	81,261787
576,000000	81,503149
575,000000	81,737368
574,000000	81,950228
573,000000	82,142135
572,000000	82,357189
571,000000	82,546347
570,000000	82,712231
569,000000	82,860656
568,000000	82,997730
567,000000	83,149077
566,000000	83,255308
565,000000	83,359133
564,000000	83,462637
563,000000	83,535278
562,000000	83,580062
561,000000	83,626383
560,000000	83,657502
559,000000	83,664451
558,000000	83,645694
557,000000	83,620872
556,000000	83,590444
555,000000	83,544046
554,000000	83,478343
553,000000	83,393533
552,000000	83,291858
551,000000	83,198721
550,000000	83,088624
549,000000	82,968210
548,000000	82,841316
547,000000	82,707302
546,000000	82,597993
545,000000	82,485033
544,000000	82,380988
543,000000	82,288919
542,000000	82,189163
541,000000	82,125702
540,000000	82,053108
539,000000	81,985695
538,000000	81,933399
537,000000	81,898395
536,000000	81,855441
535,000000	81,848774
534,000000	81,852682
533,000000	81,863692
532,000000	81,892446
531,000000	81,923577
530,000000	81,978087
529,000000	82,037195
528,000000	82,098220
527,000000	82,168937
526,000000	82,284158
525,000000	82,379672
524,000000	82,470849
523,000000	82,567394
522,000000	82,676266
521,000000	82,799256
520,000000	82,900926
519,000000	83,007419
518,000000	83,117473
517,000000	83,220410
516,000000	83,288759
515,000000	83,420657
514,000000	83,530238
513,000000	83,637355
512,000000	83,756344
511,000000	83,866405
510,000000	83,970426
509,000000	84,091785
508,000000	84,211494
507,000000	84,317750
506,000000	84,411736
505,000000	84,543762
504,000000	84,671366
503,000000	84,780890
502,000000	84,871913
501,000000	84,956280
500,000000	85,050986
499,000000	85,141460
498,000000	85,225891
497,000000	85,301206
496,000000	85,364741
495,000000	85,422152
494,000000	85,511921
493,000000	85,595444
492,000000	85,677222
491,000000	85,772349
490,000000	85,857481
489,000000	85,973443
488,000000	86,055960
487,000000	86,131838
486,000000	86,235880
485,000000	86,347766
484,000000	86,405504
483,000000	86,512975
482,000000	86,626677
481,000000	86,708727
480,000000	86,786191
479,000000	86,888334
478,000000	86,965077
477,000000	87,051139
476,000000	87,150646
475,000000	87,209321
474,000000	87,253508
473,000000	87,330029
472,000000	87,380756
471,000000	87,401323
470,000000	87,452356
469,000000	87,525523
468,000000	87,567599
467,000000	87,572641
466,000000	87,577004
465,000000	87,665006
464,000000	87,667342
463,000000	87,675759
462,000000	87,678841
461,000000	87,672542
460,000000	87,668050
459,000000	87,718732
458,000000	87,724328
457,000000	87,734908
456,000000	87,773433
455,000000	87,728720
454,000000	87,716877
453,000000	87,726035
452,000000	87,734729
451,000000	87,727999
450,000000	87,748066
449,000000	87,777111
448,000000	87,768488
447,000000	87,767785
446,000000	87,783952
445,000000	87,747896
444,000000	87,754772
443,000000	87,756984
442,000000	87,763295
441,000000	87,764528
440,000000	87,751759
439,000000	87,789281
438,000000	87,735356
437,000000	87,717190
436,000000	87,710048
435,000000	87,696770
434,000000	87,740217
433,000000	87,753582
432,000000	87,775256
431,000000	87,786900
430,000000	87,772829
429,000000	87,734166
428,000000	87,789643
427,000000	87,741579
426,000000	87,771334
425,000000	87,828652
424,000000	87,827916
423,000000	87,767136
422,000000	87,738714
421,000000	87,761326
420,000000	87,799760
419,000000	87,824302
418,000000	87,822375
417,000000	87,862383
416,000000	87,837103
415,000000	87,875333
414,000000	87,911580
413,000000	87,847684
412,000000	87,844632
411,000000	87,920767
410,000000	87,920390
409,000000	87,896864
408,000000	87,927901
407,000000	87,933987
406,000000	87,851594
405,000000	87,851820
404,000000	87,853099
403,000000	87,777557
402,000000	87,728414
401,000000	87,751413
400,000000	87,441864
399,000000	86,128151
398,000000	86,219954
397,000000	85,816481
396,000000	85,884192
395,000000	85,954619
394,000000	86,084771
393,000000	86,205939
392,000000	86,048844
391,000000	85,764385
390,000000	85,722733
389,000000	85,740089
388,000000	85,668403
387,000000	85,429427
386,000000	85,940807
385,000000	85,896034
384,000000	85,766713
383,000000	85,480264
382,000000	84,602484
381,000000	85,109053
380,000000	85,302423
379,000000	85,142432
378,000000	84,910571
377,000000	85,189409
376,000000	85,386643
375,000000	85,069141
374,000000	85,036131
373,000000	85,238888
372,000000	84,897927
371,000000	85,562530
370,000000	85,496335
369,000000	85,279634
368,000000	85,152837
367,000000	85,056807
366,000000	85,113666
365,000000	85,221195
364,000000	85,180409
363,000000	85,032910
362,000000	85,042865
361,000000	84,781883
360,000000	84,658268
359,000000	84,576185
358,000000	84,445166
357,000000	84,210780
356,000000	83,882962
355,000000	83,755629
354,000000	83,810726
353,000000	83,696905
352,000000	82,969887
351,000000	82,627850
350,000000	82,374016
349,000000	82,096104
348,000000	81,771263
347,000000	81,406719
346,000000	80,933827
345,000000	80,279533
344,000000	79,577217
343,000000	78,917168
342,000000	78,311420
341,000000	77,510529
340,000000	76,721511
339,000000	75,954171
338,000000	75,168980
337,000000	74,299711
336,000000	73,210206
335,000000	72,063608
334,000000	70,730732
333,000000	69,344514
332,000000	67,929934
331,000000	66,286672
330,000000	64,537321
329,000000	62,863553
328,000000	61,081517
327,000000	59,120730
326,000000	57,052038
325,000000	55,076143
324,000000	52,877178
323,000000	50,665727
322,000000	48,449647
321,000000	46,148711
320,000000	43,619764
319,000000	41,197488
318,000000	38,585020
317,000000	35,901783
316,000000	33,322696
315,000000	30,657311
314,000000	27,987295
313,000000	25,369054
312,000000	22,838876
311,000000	20,443681
310,000000	18,254528
309,000000	16,184940
308,000000	14,209888
307,000000	12,283665
306,000000	10,444201
305,000000	8,838150
304,000000	7,281144
303,000000	5,992067
302,000000	4,842513
301,000000	3,776446
300,000000	2,802010
299,000000	2,107480
298,000000	1,482188
297,000000	0,956767
296,000000	0,538147
295,000000	0,223431
294,000000	0,034605
293,000000	0,008335
292,000000	0,008388
291,000000	0,008285
290,000000	0,008069
289,000000	0,008460
288,000000	0,008660
287,000000	0,008321
286,000000	0,008132
285,000000	0,008355
284,000000	0,007848
283,000000	0,008256
282,000000	0,008396
281,000000	0,008262
280,000000	0,008032
279,000000	0,007947
278,000000	0,007594
277,000000	0,007394
276,000000	0,007476
275,000000	0,007707
274,000000	0,007432
273,000000	0,007392
272,000000	0,006980
271,000000	0,006610
270,000000	0,006474
269,000000	0,006362
268,000000	0,006059
267,000000	0,005953
266,000000	0,005972
265,000000	0,005885
264,000000	0,005451
263,000000	0,005477
262,000000	0,005392
261,000000	0,005086
260,000000	0,004853
259,000000	0,004956
258,000000	0,004822
257,000000	0,004510
256,000000	0,004298
255,000000	0,004242
254,000000	0,004249
253,000000	0,003974
252,000000	0,004026
251,000000	0,003947
250,000000	0,003900
249,000000	0,003877
248,000000	0,003583
247,000000	0,003535
246,000000	0,003537
245,000000	0,003471
244,000000	0,003344
243,000000	0,003307
242,000000	0,003205
241,000000	0,003129
240,000000	0,003200
239,000000	0,003329
238,000000	0,003247
237,000000	0,003156
236,000000	0,003137
235,000000	0,003142
234,000000	0,003181
233,000000	0,003282
232,000000	0,003199
231,000000	0,003271
230,000000	0,003289
229,000000	0,003273
228,000000	0,003314
227,000000	0,003321
226,000000	0,003358
225,000000	0,003379
224,000000	0,003480
223,000000	0,003710
222,000000	0,003785
221,000000	0,003729
220,000000	0,003775
219,000000	0,003946
218,000000	0,004166
217,000000	0,004187
216,000000	0,004217
215,000000	0,004385
214,000000	0,004500
213,000000	0,004503
212,000000	0,004595
211,000000	0,005011
210,000000	0,005168
209,000000	0,005415
208,000000	0,005765
207,000000	0,005838
206,000000	0,006037
205,000000	0,006757
204,000000	0,007110
203,000000	0,007148
202,000000	0,007649
201,000000	0,008535
200,000000	0,009256
