PE UV       SUBTECH     SPECTRUM    ASCII       PEDS        4.00        
   -1
blue15.asc
24/07/02
10:32:18.00
24/07/02
10:32:18.00
student

200,000000
1
Lambda 365
365K7092207
  / Unknown

480
1
0,5
0
0
Both on
1
1
1
None
0
0
0
0
 
 
0
0
0
0
0
 
 
 
0
 
0
400
0
 
0
 
 
 
0
0
0
 
0
 
 
 
0
 
 
0
0
0
0
0
 
 
 
 
0
0


0
0
#HDR
-1
-1
#GR
nm
%T
1.0
0.0
1100,000000
-1,000000
901
8
90,386154
0,003080
#DATA
1100,000000	54,547948
1099,000000	54,472251
1098,000000	54,384149
1097,000000	54,288792
1096,000000	54,200475
1095,000000	54,141729
1094,000000	54,045190
1093,000000	53,969577
1092,000000	53,894038
1091,000000	53,811994
1090,000000	53,727936
1089,000000	53,606083
1088,000000	53,534952
1087,000000	53,455615
1086,000000	53,361647
1085,000000	53,280198
1084,000000	53,237606
1083,000000	53,147326
1082,000000	53,050366
1081,000000	52,955288
1080,000000	52,855744
1079,000000	52,765706
1078,000000	52,706073
1077,000000	52,620240
1076,000000	52,512186
1075,000000	52,409414
1074,000000	52,321770
1073,000000	52,242624
1072,000000	52,174181
1071,000000	52,100553
1070,000000	52,006841
1069,000000	51,920769
1068,000000	51,830213
1067,000000	51,739808
1066,000000	51,649520
1065,000000	51,559600
1064,000000	51,477226
1063,000000	51,386156
1062,000000	51,294665
1061,000000	51,204076
1060,000000	51,114799
1059,000000	51,029206
1058,000000	50,943058
1057,000000	50,861890
1056,000000	50,785386
1055,000000	50,709483
1054,000000	50,620952
1053,000000	50,515932
1052,000000	50,418552
1051,000000	50,329257
1050,000000	50,244270
1049,000000	50,156773
1048,000000	50,066393
1047,000000	49,981127
1046,000000	49,895853
1045,000000	49,805961
1044,000000	49,709318
1043,000000	49,618957
1042,000000	49,521410
1041,000000	49,430443
1040,000000	49,348241
1039,000000	49,256918
1038,000000	49,165171
1037,000000	49,067980
1036,000000	48,977831
1035,000000	48,894407
1034,000000	48,800810
1033,000000	48,713781
1032,000000	48,621762
1031,000000	48,528805
1030,000000	48,440433
1029,000000	48,363341
1028,000000	48,262382
1027,000000	48,180020
1026,000000	48,090555
1025,000000	47,993943
1024,000000	47,910272
1023,000000	47,811657
1022,000000	47,720191
1021,000000	47,630090
1020,000000	47,539105
1019,000000	47,447339
1018,000000	47,354116
1017,000000	47,267617
1016,000000	47,173689
1015,000000	47,075572
1014,000000	46,984291
1013,000000	46,888539
1012,000000	46,801854
1011,000000	46,712361
1010,000000	46,617672
1009,000000	46,520402
1008,000000	46,430427
1007,000000	46,332847
1006,000000	46,242282
1005,000000	46,153303
1004,000000	46,057190
1003,000000	45,970357
1002,000000	45,875071
1001,000000	45,784022
1000,000000	45,695184
999,000000	45,604084
998,000000	45,514512
997,000000	45,417852
996,000000	45,326492
995,000000	45,239468
994,000000	45,152852
993,000000	45,062932
992,000000	44,974778
991,000000	44,883156
990,000000	44,787610
989,000000	44,689518
988,000000	44,592973
987,000000	44,506457
986,000000	44,415547
985,000000	44,322280
984,000000	44,229383
983,000000	44,135626
982,000000	44,044051
981,000000	43,948827
980,000000	43,859267
979,000000	43,775596
978,000000	43,676642
977,000000	43,585255
976,000000	43,490783
975,000000	43,397384
974,000000	43,305477
973,000000	43,208003
972,000000	43,111805
971,000000	43,023142
970,000000	42,933129
969,000000	42,841051
968,000000	42,757424
967,000000	42,665066
966,000000	42,575725
965,000000	42,485242
964,000000	42,395228
963,000000	42,314234
962,000000	42,221147
961,000000	42,136769
960,000000	42,049377
959,000000	41,958724
958,000000	41,875001
957,000000	41,777706
956,000000	41,690955
955,000000	41,605334
954,000000	41,515779
953,000000	41,421208
952,000000	41,337334
951,000000	41,246878
950,000000	41,157876
949,000000	41,068118
948,000000	40,970209
947,000000	40,889752
946,000000	40,803574
945,000000	40,720324
944,000000	40,635834
943,000000	40,543502
942,000000	40,446126
941,000000	40,361327
940,000000	40,270344
939,000000	40,177394
938,000000	40,091074
937,000000	39,998885
936,000000	39,923565
935,000000	39,842997
934,000000	39,755001
933,000000	39,664718
932,000000	39,582493
931,000000	39,510785
930,000000	39,429683
929,000000	39,343842
928,000000	39,259841
927,000000	39,169318
926,000000	39,087866
925,000000	39,007521
924,000000	38,928331
923,000000	38,850427
922,000000	38,769891
921,000000	38,684953
920,000000	38,602830
919,000000	38,522683
918,000000	38,441467
917,000000	38,353054
916,000000	38,278764
915,000000	38,197742
914,000000	38,120316
913,000000	38,049655
912,000000	37,970427
911,000000	37,875228
910,000000	37,796622
909,000000	37,719573
908,000000	37,637627
907,000000	37,563259
906,000000	37,493712
905,000000	37,416203
904,000000	37,336113
903,000000	37,259765
902,000000	37,193802
901,000000	37,115056
900,000000	37,036431
899,000000	36,963492
898,000000	36,893104
897,000000	36,813105
896,000000	36,748473
895,000000	36,681856
894,000000	36,616696
893,000000	36,548213
892,000000	36,465752
891,000000	36,394750
890,000000	36,330391
889,000000	36,267317
888,000000	36,198567
887,000000	36,118393
886,000000	36,067823
885,000000	36,000733
884,000000	35,933827
883,000000	35,867816
882,000000	35,795813
881,000000	35,723810
880,000000	35,665881
879,000000	35,603922
878,000000	35,538946
877,000000	35,478252
876,000000	35,409901
875,000000	35,341376
874,000000	35,277797
873,000000	35,218171
872,000000	35,160364
871,000000	35,111207
870,000000	35,039291
869,000000	34,976623
868,000000	34,925196
867,000000	34,875882
866,000000	34,805910
865,000000	34,751795
864,000000	34,700956
863,000000	34,648095
862,000000	34,592831
861,000000	34,548486
860,000000	34,504531
859,000000	34,450981
858,000000	34,396577
857,000000	34,348473
856,000000	34,299627
855,000000	34,248789
854,000000	34,206460
853,000000	34,158788
852,000000	34,101703
851,000000	34,062206
850,000000	34,016637
849,000000	33,965851
848,000000	33,920662
847,000000	33,885759
846,000000	33,852706
845,000000	33,811670
844,000000	33,766364
843,000000	33,724000
842,000000	33,685937
841,000000	33,644085
840,000000	33,612571
839,000000	33,579028
838,000000	33,537399
837,000000	33,489164
836,000000	33,444959
835,000000	33,414560
834,000000	33,378243
833,000000	33,348537
832,000000	33,322354
831,000000	33,281438
830,000000	33,258158
829,000000	33,220558
828,000000	33,190858
827,000000	33,169576
826,000000	33,140822
825,000000	33,120589
824,000000	33,103984
823,000000	33,085072
822,000000	33,057715
821,000000	33,017281
820,000000	32,985460
819,000000	32,974059
818,000000	32,959673
817,000000	32,940959
816,000000	32,925875
815,000000	32,900753
814,000000	32,873192
813,000000	32,856202
812,000000	32,844143
811,000000	32,827960
810,000000	32,835372
809,000000	32,806366
808,000000	32,798029
807,000000	32,792170
806,000000	32,760319
805,000000	32,757121
804,000000	32,753001
803,000000	32,746815
802,000000	32,742058
801,000000	32,739329
800,000000	32,725584
799,000000	32,728133
798,000000	32,716535
797,000000	32,707691
796,000000	32,709805
795,000000	32,699208
794,000000	32,715067
793,000000	32,705595
792,000000	32,702477
791,000000	32,715862
790,000000	32,718843
789,000000	32,715481
788,000000	32,720206
787,000000	32,729714
786,000000	32,738354
785,000000	32,739668
784,000000	32,756424
783,000000	32,768124
782,000000	32,780726
781,000000	32,796756
780,000000	32,815915
779,000000	32,829625
778,000000	32,833802
777,000000	32,852323
776,000000	32,871595
775,000000	32,873263
774,000000	32,900239
773,000000	32,924973
772,000000	32,948883
771,000000	32,976614
770,000000	33,008418
769,000000	33,025185
768,000000	33,054820
767,000000	33,080802
766,000000	33,106027
765,000000	33,134253
764,000000	33,164762
763,000000	33,204870
762,000000	33,238763
761,000000	33,271518
760,000000	33,307580
759,000000	33,347627
758,000000	33,379505
757,000000	33,422813
756,000000	33,463359
755,000000	33,499887
754,000000	33,544334
753,000000	33,582832
752,000000	33,625327
751,000000	33,669665
750,000000	33,717230
749,000000	33,770516
748,000000	33,823480
747,000000	33,874075
746,000000	33,931582
745,000000	33,993540
744,000000	34,053586
743,000000	34,113795
742,000000	34,170794
741,000000	34,235446
740,000000	34,302790
739,000000	34,366790
738,000000	34,434165
737,000000	34,502242
736,000000	34,574955
735,000000	34,645468
734,000000	34,709475
733,000000	34,772806
732,000000	34,855121
731,000000	34,940418
730,000000	35,022208
729,000000	35,099243
728,000000	35,176868
727,000000	35,270334
726,000000	35,348392
725,000000	35,428043
724,000000	35,519450
723,000000	35,623515
722,000000	35,705547
721,000000	35,795887
720,000000	35,890951
719,000000	35,989831
718,000000	36,092208
717,000000	36,184028
716,000000	36,296976
715,000000	36,406415
714,000000	36,515629
713,000000	36,633947
712,000000	36,736089
711,000000	36,858008
710,000000	36,976886
709,000000	37,098451
708,000000	37,230339
707,000000	37,361061
706,000000	37,482303
705,000000	37,602349
704,000000	37,724987
703,000000	37,853276
702,000000	37,990530
701,000000	38,124429
700,000000	38,260464
699,000000	38,401464
698,000000	38,547978
697,000000	38,697838
696,000000	38,833810
695,000000	38,975660
694,000000	39,126332
693,000000	39,282924
692,000000	39,437652
691,000000	39,593556
690,000000	39,743432
689,000000	39,904641
688,000000	40,073052
687,000000	40,234302
686,000000	40,408762
685,000000	40,576826
684,000000	40,750123
683,000000	40,931150
682,000000	41,118065
681,000000	41,307723
680,000000	41,492128
679,000000	41,689094
678,000000	41,890594
677,000000	42,087001
676,000000	42,291211
675,000000	42,489921
674,000000	42,693570
673,000000	42,903711
672,000000	43,116184
671,000000	43,319173
670,000000	43,534040
669,000000	43,758434
668,000000	43,978588
667,000000	44,188725
666,000000	44,396627
665,000000	44,616899
664,000000	44,834161
663,000000	45,053609
662,000000	45,274949
661,000000	45,484373
660,000000	45,701969
659,000000	45,921367
658,000000	46,139600
657,000000	46,361412
656,000000	46,601540
655,000000	46,830078
654,000000	47,087048
653,000000	47,342083
652,000000	47,593672
651,000000	47,854483
650,000000	48,111326
649,000000	48,382813
648,000000	48,660273
647,000000	48,942866
646,000000	49,230599
645,000000	49,505324
644,000000	49,778026
643,000000	50,064070
642,000000	50,357684
641,000000	50,649920
640,000000	50,950385
639,000000	51,247046
638,000000	51,532940
637,000000	51,819650
636,000000	52,117820
635,000000	52,424442
634,000000	52,732789
633,000000	53,030925
632,000000	53,331448
631,000000	53,639972
630,000000	53,944589
629,000000	54,273623
628,000000	54,591198
627,000000	54,895957
626,000000	55,200021
625,000000	55,528457
624,000000	55,840606
623,000000	56,159356
622,000000	56,469853
621,000000	56,778061
620,000000	57,103909
619,000000	57,444738
618,000000	57,772984
617,000000	58,100967
616,000000	58,437992
615,000000	58,788704
614,000000	59,131994
613,000000	59,468512
612,000000	59,805970
611,000000	60,149799
610,000000	60,498910
609,000000	60,826553
608,000000	61,167370
607,000000	61,511520
606,000000	61,849542
605,000000	62,179630
604,000000	62,518891
603,000000	62,864860
602,000000	63,202870
601,000000	63,534789
600,000000	63,864279
599,000000	64,195667
598,000000	64,562155
597,000000	64,907441
596,000000	65,247405
595,000000	65,589677
594,000000	65,931809
593,000000	66,263205
592,000000	66,598102
591,000000	66,932536
590,000000	67,265543
589,000000	67,599870
588,000000	67,957210
587,000000	68,299198
586,000000	68,648079
585,000000	69,000631
584,000000	69,347993
583,000000	69,707179
582,000000	70,071838
581,000000	70,420579
580,000000	70,772023
579,000000	71,140256
578,000000	71,488598
577,000000	71,821455
576,000000	72,148276
575,000000	72,488610
574,000000	72,840716
573,000000	73,158677
572,000000	73,489251
571,000000	73,806000
570,000000	74,126571
569,000000	74,455568
568,000000	74,777950
567,000000	75,109451
566,000000	75,443717
565,000000	75,769314
564,000000	76,086023
563,000000	76,401021
562,000000	76,668512
561,000000	76,982887
560,000000	77,280352
559,000000	77,558653
558,000000	77,844669
557,000000	78,134694
556,000000	78,420714
555,000000	78,708203
554,000000	78,987915
553,000000	79,253055
552,000000	79,527851
551,000000	79,805925
550,000000	80,086862
549,000000	80,358509
548,000000	80,621501
547,000000	80,867372
546,000000	81,139992
545,000000	81,404331
544,000000	81,651079
543,000000	81,887738
542,000000	82,146195
541,000000	82,398625
540,000000	82,631136
539,000000	82,859752
538,000000	83,096350
537,000000	83,345348
536,000000	83,548749
535,000000	83,777648
534,000000	83,994423
533,000000	84,204707
532,000000	84,440767
531,000000	84,654200
530,000000	84,855412
529,000000	85,049175
528,000000	85,233087
527,000000	85,406608
526,000000	85,608095
525,000000	85,784513
524,000000	85,967396
523,000000	86,148580
522,000000	86,314024
521,000000	86,480325
520,000000	86,641852
519,000000	86,799478
518,000000	86,955204
517,000000	87,105928
516,000000	87,225974
515,000000	87,404145
514,000000	87,545401
513,000000	87,673130
512,000000	87,803227
511,000000	87,908020
510,000000	88,027976
509,000000	88,147978
508,000000	88,261967
507,000000	88,371548
506,000000	88,487715
505,000000	88,558413
504,000000	88,672684
503,000000	88,785633
502,000000	88,871253
501,000000	88,925856
500,000000	89,032190
499,000000	89,135335
498,000000	89,210275
497,000000	89,273123
496,000000	89,356483
495,000000	89,392015
494,000000	89,476338
493,000000	89,524429
492,000000	89,564274
491,000000	89,648157
490,000000	89,702311
489,000000	89,772071
488,000000	89,829660
487,000000	89,877740
486,000000	89,926010
485,000000	89,981593
484,000000	89,998804
483,000000	90,049443
482,000000	90,100783
481,000000	90,131312
480,000000	90,182924
479,000000	90,236011
478,000000	90,269484
477,000000	90,294676
476,000000	90,317704
475,000000	90,332249
474,000000	90,338292
473,000000	90,367230
472,000000	90,384875
471,000000	90,377966
470,000000	90,360227
469,000000	90,386154
468,000000	90,385614
467,000000	90,358785
466,000000	90,335519
465,000000	90,379906
464,000000	90,326575
463,000000	90,327276
462,000000	90,309427
461,000000	90,252059
460,000000	90,233633
459,000000	90,252527
458,000000	90,247967
457,000000	90,235562
456,000000	90,226010
455,000000	90,191375
454,000000	90,161543
453,000000	90,135639
452,000000	90,118578
451,000000	90,112330
450,000000	90,097013
449,000000	90,149220
448,000000	90,095104
447,000000	90,040696
446,000000	90,032697
445,000000	89,958936
444,000000	90,034654
443,000000	90,018734
442,000000	90,002938
441,000000	89,983733
440,000000	89,918141
439,000000	89,901989
438,000000	89,866536
437,000000	89,849859
436,000000	89,827049
435,000000	89,793048
434,000000	89,809527
433,000000	89,787912
432,000000	89,777538
431,000000	89,746025
430,000000	89,707773
429,000000	89,708932
428,000000	89,729392
427,000000	89,665898
426,000000	89,647494
425,000000	89,641775
424,000000	89,607627
423,000000	89,603369
422,000000	89,485157
421,000000	89,464478
420,000000	89,477666
419,000000	89,490436
418,000000	89,512360
417,000000	89,488269
416,000000	89,445817
415,000000	89,419698
414,000000	89,415338
413,000000	89,419538
412,000000	89,372039
411,000000	89,367768
410,000000	89,347931
409,000000	89,300182
408,000000	89,235063
407,000000	89,213064
406,000000	89,167072
405,000000	89,087431
404,000000	89,019340
403,000000	88,982728
402,000000	88,874091
401,000000	88,870287
400,000000	88,576834
399,000000	87,381944
398,000000	87,594284
397,000000	87,550737
396,000000	87,055817
395,000000	87,031373
394,000000	87,093534
393,000000	87,077800
392,000000	87,207372
391,000000	87,326239
390,000000	87,094775
389,000000	87,030940
388,000000	87,002793
387,000000	86,321257
386,000000	86,334584
385,000000	86,515264
384,000000	86,901064
383,000000	87,034133
382,000000	86,135022
381,000000	86,334313
380,000000	86,364865
379,000000	86,161936
378,000000	85,878678
377,000000	85,891506
376,000000	86,084651
375,000000	86,039352
374,000000	85,892370
373,000000	85,779764
372,000000	85,834121
371,000000	85,737650
370,000000	85,482995
369,000000	85,497974
368,000000	85,655921
367,000000	85,362113
366,000000	84,904005
365,000000	84,743603
364,000000	84,833614
363,000000	84,997343
362,000000	84,945715
361,000000	84,504070
360,000000	84,152689
359,000000	84,019283
358,000000	83,926030
357,000000	83,552896
356,000000	82,952281
355,000000	82,525430
354,000000	82,419693
353,000000	82,327733
352,000000	81,738058
351,000000	81,065568
350,000000	80,770579
349,000000	80,327843
348,000000	79,752355
347,000000	79,257528
346,000000	78,709777
345,000000	77,991308
344,000000	77,077501
343,000000	76,143900
342,000000	75,344002
341,000000	74,494100
340,000000	73,482802
339,000000	72,385758
338,000000	71,287677
337,000000	70,186060
336,000000	68,792767
335,000000	67,432183
334,000000	65,994157
333,000000	64,406405
332,000000	62,669626
331,000000	60,901699
330,000000	58,880703
329,000000	56,943948
328,000000	54,846323
327,000000	52,573780
326,000000	50,339012
325,000000	47,931747
324,000000	45,569588
323,000000	43,169626
322,000000	40,663847
321,000000	38,046096
320,000000	35,449920
319,000000	32,838155
318,000000	30,084794
317,000000	27,265280
316,000000	24,515317
315,000000	21,894338
314,000000	19,307543
313,000000	16,766414
312,000000	14,386208
311,000000	12,246891
310,000000	10,332975
309,000000	8,487500
308,000000	6,884374
307,000000	5,447394
306,000000	4,135889
305,000000	2,980620
304,000000	2,141839
303,000000	1,440884
302,000000	0,866399
301,000000	0,395818
300,000000	0,009194
299,000000	0,008459
298,000000	0,008605
297,000000	0,008718
296,000000	0,008646
295,000000	0,008532
294,000000	0,008170
293,000000	0,008502
292,000000	0,008495
291,000000	0,008495
290,000000	0,008801
289,000000	0,008313
288,000000	0,008294
287,000000	0,008258
286,000000	0,008204
285,000000	0,008151
284,000000	0,008031
283,000000	0,008165
282,000000	0,008214
281,000000	0,008075
280,000000	0,007803
279,000000	0,007912
278,000000	0,007851
277,000000	0,007910
276,000000	0,007930
275,000000	0,007717
274,000000	0,007196
273,000000	0,007336
272,000000	0,007263
271,000000	0,006995
270,000000	0,006704
269,000000	0,006650
268,000000	0,006388
267,000000	0,006179
266,000000	0,005902
265,000000	0,005714
264,000000	0,005867
263,000000	0,005350
262,000000	0,005270
261,000000	0,005205
260,000000	0,005004
259,000000	0,004700
258,000000	0,004774
257,000000	0,004698
256,000000	0,004598
255,000000	0,004445
254,000000	0,004223
253,000000	0,004009
252,000000	0,004029
251,000000	0,003986
250,000000	0,003835
249,000000	0,003660
248,000000	0,003684
247,000000	0,003531
246,000000	0,003448
245,000000	0,003412
244,000000	0,003429
243,000000	0,003554
242,000000	0,003406
241,000000	0,003273
240,000000	0,003211
239,000000	0,003209
238,000000	0,003196
237,000000	0,003080
236,000000	0,003126
235,000000	0,003167
234,000000	0,003210
233,000000	0,003335
232,000000	0,003195
231,000000	0,003176
230,000000	0,003249
229,000000	0,003329
228,000000	0,003338
227,000000	0,003430
226,000000	0,003454
225,000000	0,003468
224,000000	0,003477
223,000000	0,003512
222,000000	0,003738
221,000000	0,003753
220,000000	0,003840
219,000000	0,003999
218,000000	0,004149
217,000000	0,004112
216,000000	0,004260
215,000000	0,004339
214,000000	0,004379
213,000000	0,004445
212,000000	0,004616
211,000000	0,004770
210,000000	0,004963
209,000000	0,005348
208,000000	0,005759
207,000000	0,005691
206,000000	0,005952
205,000000	0,006393
204,000000	0,006921
203,000000	0,007471
202,000000	0,008115
201,000000	0,008908
200,000000	0,009461
