PE UV       SUBTECH     SPECTRUM    ASCII       PEDS        4.00        
   -1
iodine.asc
24/07/02
11:04:30.00
24/07/02
11:04:30.00
student

200,000000
1
Lambda 365
365K7092207
  / Unknown

480
1
0,5
0
0
Both on
1
1
1
None
0
0
0
0
 
 
0
0
0
0
0
 
 
 
0
 
0
400
0
 
0
 
 
 
0
0
0
 
0
 
 
 
0
 
 
0
0
0
0
0
 
 
 
 
0
0


0
0
#HDR
-1
-1
#GR
nm
%T
1.0
0.0
1100,000000
-1,000000
901
8
77,545080
0,003067
#DATA
1100,000000	77,488772
1099,000000	77,531046
1098,000000	77,521281
1097,000000	77,515082
1096,000000	77,523545
1095,000000	77,512381
1094,000000	77,513179
1093,000000	77,527146
1092,000000	77,534269
1091,000000	77,534466
1090,000000	77,542252
1089,000000	77,504447
1088,000000	77,516452
1087,000000	77,524380
1086,000000	77,524270
1085,000000	77,540973
1084,000000	77,533064
1083,000000	77,525072
1082,000000	77,527225
1081,000000	77,527264
1080,000000	77,506372
1079,000000	77,510170
1078,000000	77,525265
1077,000000	77,522923
1076,000000	77,512594
1075,000000	77,515586
1074,000000	77,517042
1073,000000	77,511429
1072,000000	77,529289
1071,000000	77,545080
1070,000000	77,528133
1069,000000	77,535278
1068,000000	77,522923
1067,000000	77,520097
1066,000000	77,517095
1065,000000	77,503705
1064,000000	77,516985
1063,000000	77,512229
1062,000000	77,493759
1061,000000	77,475206
1060,000000	77,468827
1059,000000	77,476431
1058,000000	77,491104
1057,000000	77,500707
1056,000000	77,506336
1055,000000	77,510769
1054,000000	77,515319
1053,000000	77,489311
1052,000000	77,491513
1051,000000	77,498310
1050,000000	77,493266
1049,000000	77,500192
1048,000000	77,488900
1047,000000	77,483566
1046,000000	77,485697
1045,000000	77,488347
1044,000000	77,471869
1043,000000	77,477643
1042,000000	77,470781
1041,000000	77,470863
1040,000000	77,478359
1039,000000	77,458970
1038,000000	77,459052
1037,000000	77,454285
1036,000000	77,454715
1035,000000	77,461622
1034,000000	77,463933
1033,000000	77,460666
1032,000000	77,457583
1031,000000	77,451178
1030,000000	77,446564
1029,000000	77,457431
1028,000000	77,443526
1027,000000	77,450489
1026,000000	77,448211
1025,000000	77,436846
1024,000000	77,440503
1023,000000	77,433540
1022,000000	77,429975
1021,000000	77,428379
1020,000000	77,426737
1019,000000	77,422961
1018,000000	77,421564
1017,000000	77,414401
1016,000000	77,407643
1015,000000	77,404729
1014,000000	77,406814
1013,000000	77,404496
1012,000000	77,402035
1011,000000	77,393408
1010,000000	77,383982
1009,000000	77,383466
1008,000000	77,395807
1007,000000	77,393873
1006,000000	77,389541
1005,000000	77,385140
1004,000000	77,380231
1003,000000	77,377068
1002,000000	77,379197
1001,000000	77,382528
1000,000000	77,383498
999,000000	77,379037
998,000000	77,367072
997,000000	77,370161
996,000000	77,368667
995,000000	77,367033
994,000000	77,369010
993,000000	77,354105
992,000000	77,353220
991,000000	77,351836
990,000000	77,348265
989,000000	77,342076
988,000000	77,329522
987,000000	77,328622
986,000000	77,334648
985,000000	77,336827
984,000000	77,328804
983,000000	77,316708
982,000000	77,318482
981,000000	77,316390
980,000000	77,311396
979,000000	77,306013
978,000000	77,302385
977,000000	77,303180
976,000000	77,292574
975,000000	77,283456
974,000000	77,282977
973,000000	77,286317
972,000000	77,284295
971,000000	77,284809
970,000000	77,284323
969,000000	77,281640
968,000000	77,279171
967,000000	77,280563
966,000000	77,286095
965,000000	77,279635
964,000000	77,263618
963,000000	77,260150
962,000000	77,259423
961,000000	77,258128
960,000000	77,255474
959,000000	77,249578
958,000000	77,238529
957,000000	77,247398
956,000000	77,243212
955,000000	77,242764
954,000000	77,241775
953,000000	77,223774
952,000000	77,216613
951,000000	77,223919
950,000000	77,227648
949,000000	77,218020
948,000000	77,193987
947,000000	77,198789
946,000000	77,196539
945,000000	77,198266
944,000000	77,199131
943,000000	77,189828
942,000000	77,186013
941,000000	77,187121
940,000000	77,186298
939,000000	77,179553
938,000000	77,166112
937,000000	77,161429
936,000000	77,162450
935,000000	77,163535
934,000000	77,166602
933,000000	77,171248
932,000000	77,155041
931,000000	77,156970
930,000000	77,159123
929,000000	77,159691
928,000000	77,157496
927,000000	77,139637
926,000000	77,146059
925,000000	77,142993
924,000000	77,137767
923,000000	77,139880
922,000000	77,143948
921,000000	77,134303
920,000000	77,122225
919,000000	77,111670
918,000000	77,105627
917,000000	77,107185
916,000000	77,103112
915,000000	77,094957
914,000000	77,094531
913,000000	77,101995
912,000000	77,092019
911,000000	77,064165
910,000000	77,064032
909,000000	77,064698
908,000000	77,053627
907,000000	77,049064
906,000000	77,064885
905,000000	77,062832
904,000000	77,058917
903,000000	77,062995
902,000000	77,074130
901,000000	77,061248
900,000000	77,044687
899,000000	77,043501
898,000000	77,053261
897,000000	77,045231
896,000000	77,037644
895,000000	77,045997
894,000000	77,042442
893,000000	77,027516
892,000000	77,025035
891,000000	77,015710
890,000000	77,035082
889,000000	77,038716
888,000000	77,019703
887,000000	76,997074
886,000000	76,989291
885,000000	76,983527
884,000000	76,982740
883,000000	76,991864
882,000000	77,011032
881,000000	76,968882
880,000000	76,970556
879,000000	76,974029
878,000000	76,971697
877,000000	76,967487
876,000000	76,938381
875,000000	76,956644
874,000000	76,960858
873,000000	76,954632
872,000000	76,959749
871,000000	76,968234
870,000000	76,955681
869,000000	76,939479
868,000000	76,930371
867,000000	76,932829
866,000000	76,928506
865,000000	76,936287
864,000000	76,936998
863,000000	76,934869
862,000000	76,933398
861,000000	76,912677
860,000000	76,906915
859,000000	76,897495
858,000000	76,894855
857,000000	76,904955
856,000000	76,906238
855,000000	76,891179
854,000000	76,891313
853,000000	76,893083
852,000000	76,883508
851,000000	76,863805
850,000000	76,841366
849,000000	76,841502
848,000000	76,851027
847,000000	76,858230
846,000000	76,860877
845,000000	76,853430
844,000000	76,848127
843,000000	76,840440
842,000000	76,829230
841,000000	76,820011
840,000000	76,838879
839,000000	76,825510
838,000000	76,817602
837,000000	76,817053
836,000000	76,777306
835,000000	76,786385
834,000000	76,779966
833,000000	76,786470
832,000000	76,800830
831,000000	76,784664
830,000000	76,786141
829,000000	76,774997
828,000000	76,778120
827,000000	76,786849
826,000000	76,766511
825,000000	76,762790
824,000000	76,746876
823,000000	76,737584
822,000000	76,732585
821,000000	76,718220
820,000000	76,720333
819,000000	76,732931
818,000000	76,729335
817,000000	76,708373
816,000000	76,685161
815,000000	76,708565
814,000000	76,688398
813,000000	76,682657
812,000000	76,683641
811,000000	76,665035
810,000000	76,666075
809,000000	76,652390
808,000000	76,659745
807,000000	76,668198
806,000000	76,649957
805,000000	76,638592
804,000000	76,633443
803,000000	76,636792
802,000000	76,629399
801,000000	76,605691
800,000000	76,623143
799,000000	76,618389
798,000000	76,612408
797,000000	76,613909
796,000000	76,617112
795,000000	76,587864
794,000000	76,594551
793,000000	76,577681
792,000000	76,572179
791,000000	76,582821
790,000000	76,564617
789,000000	76,558381
788,000000	76,553530
787,000000	76,535641
786,000000	76,511878
785,000000	76,508325
784,000000	76,529412
783,000000	76,536251
782,000000	76,516207
781,000000	76,488864
780,000000	76,486383
779,000000	76,458335
778,000000	76,448842
777,000000	76,446430
776,000000	76,438820
775,000000	76,420789
774,000000	76,434102
773,000000	76,408535
772,000000	76,411242
771,000000	76,419704
770,000000	76,407825
769,000000	76,418328
768,000000	76,396810
767,000000	76,388175
766,000000	76,385137
765,000000	76,377199
764,000000	76,364057
763,000000	76,368526
762,000000	76,364944
761,000000	76,358407
760,000000	76,352295
759,000000	76,343778
758,000000	76,318274
757,000000	76,312932
756,000000	76,309676
755,000000	76,297054
754,000000	76,272863
753,000000	76,279176
752,000000	76,260998
751,000000	76,246692
750,000000	76,236589
749,000000	76,215781
748,000000	76,214840
747,000000	76,202190
746,000000	76,192749
745,000000	76,185500
744,000000	76,173412
743,000000	76,153726
742,000000	76,135915
741,000000	76,132170
740,000000	76,129929
739,000000	76,118791
738,000000	76,123652
737,000000	76,111585
736,000000	76,110691
735,000000	76,100432
734,000000	76,070582
733,000000	76,053587
732,000000	76,051312
731,000000	76,047843
730,000000	76,042343
729,000000	76,039371
728,000000	76,049970
727,000000	76,018920
726,000000	75,999075
725,000000	75,982877
724,000000	75,972767
723,000000	75,980920
722,000000	75,946729
721,000000	75,934154
720,000000	75,925945
719,000000	75,912010
718,000000	75,889328
717,000000	75,885172
716,000000	75,880259
715,000000	75,858641
714,000000	75,837902
713,000000	75,838371
712,000000	75,806803
711,000000	75,791884
710,000000	75,781672
709,000000	75,775341
708,000000	75,771410
707,000000	75,755988
706,000000	75,728606
705,000000	75,713502
704,000000	75,711284
703,000000	75,713477
702,000000	75,698794
701,000000	75,689528
700,000000	75,666888
699,000000	75,642841
698,000000	75,627812
697,000000	75,626533
696,000000	75,619131
695,000000	75,602051
694,000000	75,587145
693,000000	75,575372
692,000000	75,557385
691,000000	75,543917
690,000000	75,522772
689,000000	75,504872
688,000000	75,489503
687,000000	75,469945
686,000000	75,453369
685,000000	75,430812
684,000000	75,418551
683,000000	75,406825
682,000000	75,382020
681,000000	75,368132
680,000000	75,351929
679,000000	75,340375
678,000000	75,328693
677,000000	75,312557
676,000000	75,301290
675,000000	75,278047
674,000000	75,264754
673,000000	75,264003
672,000000	75,270952
671,000000	75,271594
670,000000	75,253542
669,000000	75,249928
668,000000	75,252392
667,000000	75,250996
666,000000	75,238464
665,000000	75,232131
664,000000	75,225642
663,000000	75,208883
662,000000	75,179799
661,000000	75,151889
660,000000	75,106784
659,000000	75,080283
658,000000	75,049247
657,000000	75,003669
656,000000	74,954657
655,000000	74,912538
654,000000	74,896058
653,000000	74,877554
652,000000	74,849289
651,000000	74,818734
650,000000	74,794522
649,000000	74,786603
648,000000	74,763846
647,000000	74,729621
646,000000	74,702191
645,000000	74,687567
644,000000	74,673241
643,000000	74,640043
642,000000	74,595741
641,000000	74,562518
640,000000	74,592642
639,000000	74,565370
638,000000	74,508302
637,000000	74,468342
636,000000	74,473535
635,000000	74,485527
634,000000	74,443598
633,000000	74,377317
632,000000	74,359591
631,000000	74,391150
630,000000	74,333148
629,000000	74,263009
628,000000	74,249929
627,000000	74,254437
626,000000	74,234764
625,000000	74,154606
624,000000	74,068815
623,000000	74,124172
622,000000	74,125636
621,000000	74,032476
620,000000	73,925618
619,000000	73,965056
618,000000	73,989799
617,000000	73,907963
616,000000	73,773086
615,000000	73,708060
614,000000	73,849448
613,000000	73,746129
612,000000	73,559681
611,000000	73,524452
610,000000	73,728322
609,000000	73,572562
608,000000	73,330954
607,000000	73,450945
606,000000	73,573844
605,000000	73,403450
604,000000	73,114144
603,000000	73,395815
602,000000	73,366224
601,000000	73,134503
600,000000	72,979049
599,000000	73,311774
598,000000	73,149359
597,000000	72,857063
596,000000	72,854658
595,000000	73,055184
594,000000	72,898226
593,000000	72,544635
592,000000	72,693191
591,000000	72,762417
590,000000	72,551232
589,000000	72,171114
588,000000	72,583492
587,000000	72,462359
586,000000	72,067971
585,000000	71,937708
584,000000	72,411629
583,000000	72,044842
582,000000	71,589021
581,000000	71,786557
580,000000	71,939989
579,000000	71,466752
578,000000	71,294693
577,000000	71,581416
576,000000	71,305352
575,000000	71,152841
574,000000	71,415897
573,000000	71,140454
572,000000	70,597371
571,000000	70,955588
570,000000	71,025915
569,000000	70,557855
568,000000	70,672250
567,000000	70,678906
566,000000	70,363191
565,000000	70,407034
564,000000	70,502560
563,000000	69,663785
562,000000	69,836459
561,000000	69,842998
560,000000	69,736637
559,000000	69,696736
558,000000	69,872870
557,000000	69,588465
556,000000	69,751948
555,000000	69,618455
554,000000	69,341152
553,000000	69,248144
552,000000	69,150721
551,000000	68,707767
550,000000	68,749576
549,000000	68,727378
548,000000	68,331294
547,000000	68,580730
546,000000	68,360686
545,000000	68,216082
544,000000	68,300032
543,000000	68,380305
542,000000	67,622568
541,000000	68,336221
540,000000	67,641083
539,000000	67,397572
538,000000	67,720567
537,000000	66,725718
536,000000	67,284506
535,000000	67,618017
534,000000	67,236293
533,000000	66,730671
532,000000	67,281725
531,000000	67,120940
530,000000	66,575195
529,000000	66,551322
528,000000	66,897191
527,000000	66,952753
526,000000	66,081902
525,000000	66,072396
524,000000	66,279388
523,000000	66,465898
522,000000	66,493908
521,000000	66,147017
520,000000	65,815729
519,000000	65,648695
518,000000	65,588465
517,000000	65,548826
516,000000	65,497661
515,000000	65,454288
514,000000	65,470151
513,000000	65,527014
512,000000	65,565227
511,000000	65,457655
510,000000	65,289735
509,000000	65,282749
508,000000	65,247119
507,000000	65,139503
506,000000	65,140517
505,000000	65,077250
504,000000	65,022605
503,000000	64,972545
502,000000	64,921767
501,000000	64,865787
500,000000	64,838208
499,000000	64,787182
498,000000	64,731362
497,000000	64,676311
496,000000	64,620110
495,000000	64,563389
494,000000	64,537321
493,000000	64,476044
492,000000	64,404389
491,000000	64,369802
490,000000	64,339579
489,000000	64,289507
488,000000	64,224617
487,000000	64,163682
486,000000	64,118274
485,000000	64,059132
484,000000	64,003811
483,000000	63,945883
482,000000	63,891365
481,000000	63,841314
480,000000	63,780367
479,000000	63,737222
478,000000	63,685990
477,000000	63,635812
476,000000	63,587844
475,000000	63,526303
474,000000	63,469118
473,000000	63,420473
472,000000	63,371479
471,000000	63,307624
470,000000	63,209329
469,000000	63,129446
468,000000	63,057677
467,000000	62,973260
466,000000	62,882322
465,000000	62,818301
464,000000	62,679422
463,000000	62,595845
462,000000	62,491382
461,000000	62,348839
460,000000	62,264309
459,000000	62,183116
458,000000	62,098887
457,000000	62,007395
456,000000	61,900949
455,000000	61,758108
454,000000	61,669977
453,000000	61,599657
452,000000	61,514819
451,000000	61,391555
450,000000	61,265419
449,000000	61,201359
448,000000	61,066918
447,000000	60,948801
446,000000	60,876564
445,000000	60,740115
444,000000	60,671242
443,000000	60,590301
442,000000	60,461166
441,000000	60,313668
440,000000	60,208126
439,000000	60,140875
438,000000	60,016186
437,000000	59,939783
436,000000	59,860547
435,000000	59,734921
434,000000	59,604012
433,000000	59,514102
432,000000	59,429721
431,000000	59,334652
430,000000	59,237025
429,000000	59,155844
428,000000	59,029844
427,000000	58,929397
426,000000	58,811056
425,000000	58,699518
424,000000	58,605805
423,000000	58,454068
422,000000	58,304417
421,000000	58,217463
420,000000	58,116059
419,000000	57,992937
418,000000	57,912016
417,000000	57,839479
416,000000	57,657424
415,000000	57,544395
414,000000	57,486497
413,000000	57,408212
412,000000	57,307707
411,000000	57,203910
410,000000	57,091156
409,000000	56,962949
408,000000	56,827274
407,000000	56,762705
406,000000	56,594281
405,000000	56,463966
404,000000	56,343700
403,000000	56,179340
402,000000	55,941288
401,000000	55,850167
400,000000	55,280236
399,000000	52,825065
398,000000	52,764073
397,000000	52,768798
396,000000	52,031667
395,000000	52,098110
394,000000	52,261152
393,000000	52,086907
392,000000	51,596706
391,000000	51,588839
390,000000	51,468089
389,000000	51,355873
388,000000	51,088850
387,000000	50,247409
386,000000	50,235390
385,000000	49,875857
384,000000	49,856285
383,000000	50,037183
382,000000	49,675831
381,000000	49,252915
380,000000	48,973892
379,000000	49,049765
378,000000	49,315562
377,000000	49,286064
376,000000	49,312511
375,000000	49,329965
374,000000	49,327814
373,000000	49,353113
372,000000	49,500517
371,000000	49,521465
370,000000	49,623179
369,000000	49,823610
368,000000	49,918772
367,000000	49,517752
366,000000	49,551467
365,000000	49,468941
364,000000	49,468906
363,000000	49,440592
362,000000	48,983675
361,000000	49,098682
360,000000	49,364329
359,000000	49,399450
358,000000	49,186625
357,000000	48,922654
356,000000	48,749473
355,000000	48,582890
354,000000	48,510817
353,000000	48,362784
352,000000	47,878434
351,000000	47,674751
350,000000	47,382088
349,000000	47,088271
348,000000	46,789632
347,000000	46,441651
346,000000	46,007193
345,000000	45,450140
344,000000	44,762282
343,000000	44,019867
342,000000	43,309997
341,000000	42,635101
340,000000	41,884941
339,000000	41,232479
338,000000	40,346672
337,000000	39,090643
336,000000	38,125209
335,000000	36,849140
334,000000	35,575943
333,000000	34,267186
332,000000	32,862828
331,000000	31,331162
330,000000	29,594097
329,000000	27,924164
328,000000	26,340998
327,000000	24,763186
326,000000	23,020016
325,000000	21,266641
324,000000	19,476863
323,000000	17,760543
322,000000	16,099202
321,000000	14,444121
320,000000	12,903185
319,000000	11,293589
318,000000	9,674959
317,000000	8,141544
316,000000	6,773141
315,000000	5,481062
314,000000	4,463137
313,000000	3,518411
312,000000	2,684021
311,000000	1,967451
310,000000	1,218393
309,000000	0,713879
308,000000	0,351012
307,000000	0,118864
306,000000	0,009159
305,000000	0,009057
304,000000	0,009261
303,000000	0,009174
302,000000	0,008912
301,000000	0,008743
300,000000	0,008972
299,000000	0,008834
298,000000	0,008921
297,000000	0,008733
296,000000	0,008351
295,000000	0,008146
294,000000	0,008647
293,000000	0,008687
292,000000	0,008564
291,000000	0,008386
290,000000	0,008234
289,000000	0,008221
288,000000	0,008090
287,000000	0,008262
286,000000	0,008457
285,000000	0,008388
284,000000	0,007877
283,000000	0,008169
282,000000	0,008328
281,000000	0,008211
280,000000	0,007915
279,000000	0,008026
278,000000	0,007891
277,000000	0,007585
276,000000	0,007310
275,000000	0,007252
274,000000	0,007502
273,000000	0,007296
272,000000	0,007068
271,000000	0,006935
270,000000	0,006836
269,000000	0,006508
268,000000	0,006266
267,000000	0,006058
266,000000	0,005868
265,000000	0,005742
264,000000	0,005741
263,000000	0,005560
262,000000	0,005350
261,000000	0,005122
260,000000	0,004882
259,000000	0,004659
258,000000	0,004630
257,000000	0,004470
256,000000	0,004440
255,000000	0,004385
254,000000	0,004192
253,000000	0,004030
252,000000	0,004045
251,000000	0,004058
250,000000	0,003957
249,000000	0,003788
248,000000	0,003787
247,000000	0,003768
246,000000	0,003548
245,000000	0,003416
244,000000	0,003415
243,000000	0,003297
242,000000	0,003230
241,000000	0,003295
240,000000	0,003349
239,000000	0,003287
238,000000	0,003067
237,000000	0,003134
236,000000	0,003186
235,000000	0,003193
234,000000	0,003203
233,000000	0,003290
232,000000	0,003335
231,000000	0,003316
230,000000	0,003341
229,000000	0,003415
228,000000	0,003489
227,000000	0,003460
226,000000	0,003550
225,000000	0,003527
224,000000	0,003470
223,000000	0,003523
222,000000	0,003764
221,000000	0,003667
220,000000	0,003820
219,000000	0,003942
218,000000	0,003858
217,000000	0,003957
216,000000	0,004125
215,000000	0,004242
214,000000	0,004322
213,000000	0,004457
212,000000	0,004844
211,000000	0,005090
210,000000	0,005332
209,000000	0,005553
208,000000	0,005744
207,000000	0,005894
206,000000	0,006077
205,000000	0,006537
204,000000	0,006984
203,000000	0,007404
202,000000	0,008081
201,000000	0,009170
200,000000	0,009430
