PE UV       SUBTECH     SPECTRUM    ASCII       PEDS        4.00        
   -1
blue0.asc
24/07/02
10:28:25.00
24/07/02
10:28:25.00
student

200,000000
1
Lambda 365
365K7092207
  / Unknown

480
1
0,5
0
0
Both on
1
1
1
None
0
0
0
0
 
 
0
0
0
0
0
 
 
 
0
 
0
400
0
 
0
 
 
 
0
0
0
 
0
 
 
 
0
 
 
0
0
0
0
0
 
 
 
 
0
0


0
0
#HDR
-1
-1
#GR
nm
%T
1.0
0.0
1100,000000
-1,000000
901
8
90,825735
0,003093
#DATA
1100,000000	55,020982
1099,000000	54,912362
1098,000000	54,815482
1097,000000	54,725134
1096,000000	54,650095
1095,000000	54,612817
1094,000000	54,503581
1093,000000	54,423173
1092,000000	54,350399
1091,000000	54,266379
1090,000000	54,156465
1089,000000	54,074571
1088,000000	53,989781
1087,000000	53,909505
1086,000000	53,833082
1085,000000	53,754726
1084,000000	53,671105
1083,000000	53,582919
1082,000000	53,490631
1081,000000	53,399416
1080,000000	53,316499
1079,000000	53,243366
1078,000000	53,172651
1077,000000	53,081052
1076,000000	52,975600
1075,000000	52,877160
1074,000000	52,816148
1073,000000	52,732611
1072,000000	52,640284
1071,000000	52,551593
1070,000000	52,475201
1069,000000	52,396181
1068,000000	52,306410
1067,000000	52,215134
1066,000000	52,123515
1065,000000	52,033226
1064,000000	51,958909
1063,000000	51,858116
1062,000000	51,766589
1061,000000	51,680924
1060,000000	51,592171
1059,000000	51,499419
1058,000000	51,432431
1057,000000	51,351253
1056,000000	51,268051
1055,000000	51,192332
1054,000000	51,100764
1053,000000	50,992759
1052,000000	50,902184
1051,000000	50,816884
1050,000000	50,726874
1049,000000	50,639927
1048,000000	50,547142
1047,000000	50,463745
1046,000000	50,378154
1045,000000	50,282163
1044,000000	50,177080
1043,000000	50,096077
1042,000000	50,002146
1041,000000	49,912113
1040,000000	49,831021
1039,000000	49,741061
1038,000000	49,653695
1037,000000	49,566932
1036,000000	49,477561
1035,000000	49,387005
1034,000000	49,302566
1033,000000	49,207855
1032,000000	49,114862
1031,000000	49,025146
1030,000000	48,939882
1029,000000	48,859881
1028,000000	48,758674
1027,000000	48,678003
1026,000000	48,588308
1025,000000	48,490684
1024,000000	48,410234
1023,000000	48,311894
1022,000000	48,216862
1021,000000	48,124740
1020,000000	48,035331
1019,000000	47,948451
1018,000000	47,862504
1017,000000	47,767829
1016,000000	47,671987
1015,000000	47,579244
1014,000000	47,491318
1013,000000	47,399387
1012,000000	47,307237
1011,000000	47,213037
1010,000000	47,117057
1009,000000	47,021386
1008,000000	46,936166
1007,000000	46,838934
1006,000000	46,746442
1005,000000	46,657826
1004,000000	46,567666
1003,000000	46,481145
1002,000000	46,384882
1001,000000	46,291330
1000,000000	46,200863
999,000000	46,110727
998,000000	46,018999
997,000000	45,934506
996,000000	45,841594
995,000000	45,752268
994,000000	45,673411
993,000000	45,566624
992,000000	45,482402
991,000000	45,393472
990,000000	45,301052
989,000000	45,208974
988,000000	45,114061
987,000000	45,025952
986,000000	44,936917
985,000000	44,848149
984,000000	44,759316
983,000000	44,662942
982,000000	44,568047
981,000000	44,470973
980,000000	44,378051
979,000000	44,290825
978,000000	44,199131
977,000000	44,105655
976,000000	44,012757
975,000000	43,919145
974,000000	43,825819
973,000000	43,738250
972,000000	43,645261
971,000000	43,557129
970,000000	43,466497
969,000000	43,373697
968,000000	43,289498
967,000000	43,198465
966,000000	43,105071
965,000000	43,014653
964,000000	42,928942
963,000000	42,846719
962,000000	42,754418
961,000000	42,666140
960,000000	42,579591
959,000000	42,492652
958,000000	42,404484
957,000000	42,310976
956,000000	42,225305
955,000000	42,137773
954,000000	42,046697
953,000000	41,956176
952,000000	41,870154
951,000000	41,783810
950,000000	41,697851
949,000000	41,609699
948,000000	41,514320
947,000000	41,426413
946,000000	41,338352
945,000000	41,253445
944,000000	41,168373
943,000000	41,079345
942,000000	40,985740
941,000000	40,899371
940,000000	40,811688
939,000000	40,720838
938,000000	40,628220
937,000000	40,546681
936,000000	40,463607
935,000000	40,376384
934,000000	40,292256
933,000000	40,216572
932,000000	40,127967
931,000000	40,041562
930,000000	39,965006
929,000000	39,893319
928,000000	39,816709
927,000000	39,716842
926,000000	39,635070
925,000000	39,553496
924,000000	39,474872
923,000000	39,400874
922,000000	39,319193
921,000000	39,232661
920,000000	39,147727
919,000000	39,063743
918,000000	38,982077
917,000000	38,911801
916,000000	38,837284
915,000000	38,750814
914,000000	38,667320
913,000000	38,592552
912,000000	38,511063
911,000000	38,426741
910,000000	38,353426
909,000000	38,275484
908,000000	38,190972
907,000000	38,123356
906,000000	38,046030
905,000000	37,969702
904,000000	37,893126
903,000000	37,816745
902,000000	37,743479
901,000000	37,656392
900,000000	37,582525
899,000000	37,516481
898,000000	37,447728
897,000000	37,361184
896,000000	37,294661
895,000000	37,225772
894,000000	37,158334
893,000000	37,093138
892,000000	37,028281
891,000000	36,952718
890,000000	36,887390
889,000000	36,826767
888,000000	36,760528
887,000000	36,677913
886,000000	36,627331
885,000000	36,563948
884,000000	36,490917
883,000000	36,416814
882,000000	36,352212
881,000000	36,289953
880,000000	36,225298
879,000000	36,157397
878,000000	36,091350
877,000000	36,032657
876,000000	35,966212
875,000000	35,904102
874,000000	35,841606
873,000000	35,777991
872,000000	35,716363
871,000000	35,677209
870,000000	35,603620
869,000000	35,540814
868,000000	35,486086
867,000000	35,427481
866,000000	35,373717
865,000000	35,325423
864,000000	35,266039
863,000000	35,209038
862,000000	35,164555
861,000000	35,103675
860,000000	35,058690
859,000000	35,011620
858,000000	34,966869
857,000000	34,925077
856,000000	34,864108
855,000000	34,811804
854,000000	34,773802
853,000000	34,726978
852,000000	34,663970
851,000000	34,624642
850,000000	34,576192
849,000000	34,534673
848,000000	34,494750
847,000000	34,454211
846,000000	34,420744
845,000000	34,369697
844,000000	34,324845
843,000000	34,287419
842,000000	34,252326
841,000000	34,206529
840,000000	34,169954
839,000000	34,136127
838,000000	34,096569
837,000000	34,048998
836,000000	33,998933
835,000000	33,975450
834,000000	33,943756
833,000000	33,913570
832,000000	33,887179
831,000000	33,859081
830,000000	33,825164
829,000000	33,789659
828,000000	33,763616
827,000000	33,740593
826,000000	33,702015
825,000000	33,688463
824,000000	33,659631
823,000000	33,632399
822,000000	33,607282
821,000000	33,576718
820,000000	33,573916
819,000000	33,554797
818,000000	33,530834
817,000000	33,503767
816,000000	33,472803
815,000000	33,461844
814,000000	33,433074
813,000000	33,417301
812,000000	33,411525
811,000000	33,401134
810,000000	33,390475
809,000000	33,352388
808,000000	33,337855
807,000000	33,334611
806,000000	33,318445
805,000000	33,317691
804,000000	33,312401
803,000000	33,307273
802,000000	33,295984
801,000000	33,277698
800,000000	33,278242
799,000000	33,275565
798,000000	33,270272
797,000000	33,271877
796,000000	33,280084
795,000000	33,271024
794,000000	33,276229
793,000000	33,268278
792,000000	33,262250
791,000000	33,269136
790,000000	33,290523
789,000000	33,281345
788,000000	33,276846
787,000000	33,284846
786,000000	33,296896
785,000000	33,292349
784,000000	33,320885
783,000000	33,329027
782,000000	33,333366
781,000000	33,342671
780,000000	33,359725
779,000000	33,373654
778,000000	33,385093
777,000000	33,410943
776,000000	33,431800
775,000000	33,426644
774,000000	33,451661
773,000000	33,473536
772,000000	33,502517
771,000000	33,530506
770,000000	33,549784
769,000000	33,570603
768,000000	33,603480
767,000000	33,628805
766,000000	33,650831
765,000000	33,676975
764,000000	33,714168
763,000000	33,746088
762,000000	33,785602
761,000000	33,822887
760,000000	33,855067
759,000000	33,891949
758,000000	33,933016
757,000000	33,969191
756,000000	34,006360
755,000000	34,047819
754,000000	34,093742
753,000000	34,140848
752,000000	34,175897
751,000000	34,225763
750,000000	34,281945
749,000000	34,316762
748,000000	34,372890
747,000000	34,427164
746,000000	34,484018
745,000000	34,543908
744,000000	34,604897
743,000000	34,660825
742,000000	34,724627
741,000000	34,791552
740,000000	34,854800
739,000000	34,911274
738,000000	34,974871
737,000000	35,050844
736,000000	35,120916
735,000000	35,186920
734,000000	35,254923
733,000000	35,334261
732,000000	35,407618
731,000000	35,488861
730,000000	35,572739
729,000000	35,654616
728,000000	35,732963
727,000000	35,822816
726,000000	35,900743
725,000000	35,991364
724,000000	36,094067
723,000000	36,182528
722,000000	36,265749
721,000000	36,347774
720,000000	36,435875
719,000000	36,534096
718,000000	36,642425
717,000000	36,737745
716,000000	36,852159
715,000000	36,957053
714,000000	37,060217
713,000000	37,178545
712,000000	37,291381
711,000000	37,403395
710,000000	37,518096
709,000000	37,640973
708,000000	37,773733
707,000000	37,903401
706,000000	38,014908
705,000000	38,135238
704,000000	38,270715
703,000000	38,416661
702,000000	38,550357
701,000000	38,682337
700,000000	38,816485
699,000000	38,953542
698,000000	39,094231
697,000000	39,239773
696,000000	39,387647
695,000000	39,534260
694,000000	39,675456
693,000000	39,818964
692,000000	39,982199
691,000000	40,126462
690,000000	40,285144
689,000000	40,446592
688,000000	40,607626
687,000000	40,769965
686,000000	40,932556
685,000000	41,098201
684,000000	41,279053
683,000000	41,465228
682,000000	41,642420
681,000000	41,824999
680,000000	42,015711
679,000000	42,209889
678,000000	42,401206
677,000000	42,587904
676,000000	42,789867
675,000000	42,985552
674,000000	43,186458
673,000000	43,393234
672,000000	43,601391
671,000000	43,802033
670,000000	44,003479
669,000000	44,218120
668,000000	44,433696
667,000000	44,643705
666,000000	44,854858
665,000000	45,077467
664,000000	45,296901
663,000000	45,516455
662,000000	45,740014
661,000000	45,970476
660,000000	46,196230
659,000000	46,418482
658,000000	46,648008
657,000000	46,889327
656,000000	47,138167
655,000000	47,370572
654,000000	47,631587
653,000000	47,889825
652,000000	48,144746
651,000000	48,411054
650,000000	48,668506
649,000000	48,940293
648,000000	49,219144
647,000000	49,499431
646,000000	49,777473
645,000000	50,063131
644,000000	50,339464
643,000000	50,625518
642,000000	50,917672
641,000000	51,208002
640,000000	51,503241
639,000000	51,800153
638,000000	52,092432
637,000000	52,386842
636,000000	52,687586
635,000000	52,982454
634,000000	53,288188
633,000000	53,596662
632,000000	53,902046
631,000000	54,206687
630,000000	54,527630
629,000000	54,834703
628,000000	55,155207
627,000000	55,472774
626,000000	55,782432
625,000000	56,094507
624,000000	56,423286
623,000000	56,738786
622,000000	57,049985
621,000000	57,363424
620,000000	57,683823
619,000000	58,018040
618,000000	58,349754
617,000000	58,682190
616,000000	59,017088
615,000000	59,355614
614,000000	59,700382
613,000000	60,034741
612,000000	60,375463
611,000000	60,721784
610,000000	61,069286
609,000000	61,419077
608,000000	61,760472
607,000000	62,100533
606,000000	62,436546
605,000000	62,769743
604,000000	63,114950
603,000000	63,444386
602,000000	63,773107
601,000000	64,109605
600,000000	64,453353
599,000000	64,790727
598,000000	65,147534
597,000000	65,497064
596,000000	65,837041
595,000000	66,171171
594,000000	66,508216
593,000000	66,860508
592,000000	67,191412
591,000000	67,520523
590,000000	67,854860
589,000000	68,194980
588,000000	68,557332
587,000000	68,892817
586,000000	69,232161
585,000000	69,581002
584,000000	69,935652
583,000000	70,293419
582,000000	70,654858
581,000000	71,009961
580,000000	71,369418
579,000000	71,737831
578,000000	72,077969
577,000000	72,416711
576,000000	72,755879
575,000000	73,099337
574,000000	73,442898
573,000000	73,767412
572,000000	74,098992
571,000000	74,414316
570,000000	74,739787
569,000000	75,074765
568,000000	75,381106
567,000000	75,715631
566,000000	76,031082
565,000000	76,353235
564,000000	76,679070
563,000000	76,982115
562,000000	77,258719
561,000000	77,577839
560,000000	77,876443
559,000000	78,154267
558,000000	78,441113
557,000000	78,736024
556,000000	79,007698
555,000000	79,305164
554,000000	79,600607
553,000000	79,859980
552,000000	80,133847
551,000000	80,403561
550,000000	80,689222
549,000000	80,967651
548,000000	81,230791
547,000000	81,482687
546,000000	81,747317
545,000000	82,013354
544,000000	82,262075
543,000000	82,499489
542,000000	82,775745
541,000000	83,009312
540,000000	83,239404
539,000000	83,466762
538,000000	83,693801
537,000000	83,925434
536,000000	84,144093
535,000000	84,395300
534,000000	84,611966
533,000000	84,803187
532,000000	85,027249
531,000000	85,233350
530,000000	85,443746
529,000000	85,647055
528,000000	85,837788
527,000000	86,017336
526,000000	86,216555
525,000000	86,377089
524,000000	86,551350
523,000000	86,739537
522,000000	86,924578
521,000000	87,083262
520,000000	87,250723
519,000000	87,390352
518,000000	87,531108
517,000000	87,693036
516,000000	87,824188
515,000000	88,000499
514,000000	88,134837
513,000000	88,256194
512,000000	88,381824
511,000000	88,477403
510,000000	88,587860
509,000000	88,713758
508,000000	88,847628
507,000000	88,965905
506,000000	89,025407
505,000000	89,151169
504,000000	89,242608
503,000000	89,339052
502,000000	89,433194
501,000000	89,480576
500,000000	89,613006
499,000000	89,701521
498,000000	89,761440
497,000000	89,818901
496,000000	89,898506
495,000000	89,924196
494,000000	90,008198
493,000000	90,066107
492,000000	90,115491
491,000000	90,197039
490,000000	90,245820
489,000000	90,284003
488,000000	90,325755
487,000000	90,366406
486,000000	90,402910
485,000000	90,456391
484,000000	90,473000
483,000000	90,515372
482,000000	90,561462
481,000000	90,590722
480,000000	90,615453
479,000000	90,655310
478,000000	90,672974
477,000000	90,700149
476,000000	90,745346
475,000000	90,772848
474,000000	90,744457
473,000000	90,751551
472,000000	90,767188
471,000000	90,776956
470,000000	90,785081
469,000000	90,822812
468,000000	90,825735
467,000000	90,801327
466,000000	90,771935
465,000000	90,778549
464,000000	90,778776
463,000000	90,793481
462,000000	90,792007
461,000000	90,762343
460,000000	90,726880
459,000000	90,746505
458,000000	90,751386
457,000000	90,744542
456,000000	90,732676
455,000000	90,714175
454,000000	90,692567
453,000000	90,695163
452,000000	90,699728
451,000000	90,680973
450,000000	90,663361
449,000000	90,653178
448,000000	90,628015
447,000000	90,596149
446,000000	90,569597
445,000000	90,557611
444,000000	90,545342
443,000000	90,528444
442,000000	90,511338
441,000000	90,498728
440,000000	90,490091
439,000000	90,451742
438,000000	90,414826
437,000000	90,387609
436,000000	90,358245
435,000000	90,330577
434,000000	90,348517
433,000000	90,366846
432,000000	90,322581
431,000000	90,252750
430,000000	90,219328
429,000000	90,269483
428,000000	90,178007
427,000000	90,157200
426,000000	90,146092
425,000000	90,150967
424,000000	90,165166
423,000000	90,099802
422,000000	90,054619
421,000000	90,059442
420,000000	90,053894
419,000000	90,019559
418,000000	89,987452
417,000000	89,995377
416,000000	89,926971
415,000000	89,907953
414,000000	89,903033
413,000000	89,847625
412,000000	89,881010
411,000000	89,868081
410,000000	89,801737
409,000000	89,740803
408,000000	89,739315
407,000000	89,735036
406,000000	89,636067
405,000000	89,613353
404,000000	89,599133
403,000000	89,514746
402,000000	89,404014
401,000000	89,407975
400,000000	89,170943
399,000000	87,953715
398,000000	87,742134
397,000000	88,014780
396,000000	87,472264
395,000000	87,639217
394,000000	87,869136
393,000000	87,774429
392,000000	87,399563
391,000000	87,513060
390,000000	87,461904
389,000000	87,656999
388,000000	87,875102
387,000000	87,401390
386,000000	87,211943
385,000000	86,943983
384,000000	86,890112
383,000000	87,053923
382,000000	87,221646
381,000000	86,970440
380,000000	87,041960
379,000000	87,185061
378,000000	87,105190
377,000000	86,428233
376,000000	86,402032
375,000000	86,361590
374,000000	86,431798
373,000000	86,578282
372,000000	86,625317
371,000000	86,523029
370,000000	86,308702
369,000000	86,205080
368,000000	86,135125
367,000000	85,769577
366,000000	85,828508
365,000000	85,930192
364,000000	85,876728
363,000000	85,652988
362,000000	85,411053
361,000000	85,140541
360,000000	84,654357
359,000000	84,522972
358,000000	84,555484
357,000000	84,120597
356,000000	83,703827
355,000000	83,006559
354,000000	82,922091
353,000000	82,991121
352,000000	82,117042
351,000000	81,915694
350,000000	81,318510
349,000000	80,829886
348,000000	80,438350
347,000000	79,929085
346,000000	79,318669
345,000000	78,623613
344,000000	77,748534
343,000000	76,800371
342,000000	75,911751
341,000000	75,098225
340,000000	74,003257
339,000000	72,925355
338,000000	71,873309
337,000000	70,793748
336,000000	69,580474
335,000000	68,104473
334,000000	66,617104
333,000000	65,029169
332,000000	63,304074
331,000000	61,580040
330,000000	59,605312
329,000000	57,547255
328,000000	55,443603
327,000000	53,276822
326,000000	50,984682
325,000000	48,555439
324,000000	46,229936
323,000000	43,851544
322,000000	41,381486
321,000000	38,870500
320,000000	36,162729
319,000000	33,396364
318,000000	30,594659
317,000000	27,818225
316,000000	25,123596
315,000000	22,373199
314,000000	19,771362
313,000000	17,299924
312,000000	14,931904
311,000000	12,693698
310,000000	10,712287
309,000000	8,779742
308,000000	7,150707
307,000000	5,710843
306,000000	4,379515
305,000000	3,151536
304,000000	2,241121
303,000000	1,523586
302,000000	0,914271
301,000000	0,412265
300,000000	0,081115
299,000000	0,020222
298,000000	0,008551
297,000000	0,008429
296,000000	0,008468
295,000000	0,008741
294,000000	0,008551
293,000000	0,008512
292,000000	0,008533
291,000000	0,008426
290,000000	0,008189
289,000000	0,008553
288,000000	0,008300
287,000000	0,008089
286,000000	0,008023
285,000000	0,008142
284,000000	0,008522
283,000000	0,008155
282,000000	0,008076
281,000000	0,008053
280,000000	0,007834
279,000000	0,007756
278,000000	0,007650
277,000000	0,007503
276,000000	0,007360
275,000000	0,007271
274,000000	0,007274
273,000000	0,007253
272,000000	0,006989
271,000000	0,006828
270,000000	0,006825
269,000000	0,006600
268,000000	0,006418
267,000000	0,006037
266,000000	0,005728
265,000000	0,005557
264,000000	0,005436
263,000000	0,005300
262,000000	0,005199
261,000000	0,005116
260,000000	0,004977
259,000000	0,004766
258,000000	0,004846
257,000000	0,004761
256,000000	0,004565
255,000000	0,004359
254,000000	0,004193
253,000000	0,003970
252,000000	0,003935
251,000000	0,003845
250,000000	0,003811
249,000000	0,003858
248,000000	0,003875
247,000000	0,003620
246,000000	0,003488
245,000000	0,003498
244,000000	0,003523
243,000000	0,003273
242,000000	0,003333
241,000000	0,003323
240,000000	0,003288
239,000000	0,003262
238,000000	0,003259
237,000000	0,003282
236,000000	0,003137
235,000000	0,003093
234,000000	0,003185
233,000000	0,003292
232,000000	0,003180
231,000000	0,003272
230,000000	0,003310
229,000000	0,003343
228,000000	0,003478
227,000000	0,003419
226,000000	0,003540
225,000000	0,003525
224,000000	0,003529
223,000000	0,003717
222,000000	0,003832
221,000000	0,003732
220,000000	0,003892
219,000000	0,004106
218,000000	0,004190
217,000000	0,004273
216,000000	0,004271
215,000000	0,004380
214,000000	0,004504
213,000000	0,004581
212,000000	0,004630
211,000000	0,004952
210,000000	0,005185
209,000000	0,005496
208,000000	0,005799
207,000000	0,005737
206,000000	0,005906
205,000000	0,006545
204,000000	0,006889
203,000000	0,007046
202,000000	0,007780
201,000000	0,008795
200,000000	0,009126
