PE UV       SUBTECH     SPECTRUM    ASCII       PEDS        4.00        
   -1
blue30.asc
24/07/02
10:36:04.00
24/07/02
10:36:04.00
student

200,000000
1
Lambda 365
365K7092207
  / Unknown

480
1
0,5
0
0
Both on
1
1
1
None
0
0
0
0
 
 
0
0
0
0
0
 
 
 
0
 
0
400
0
 
0
 
 
 
0
0
0
 
0
 
 
 
0
 
 
0
0
0
0
0
 
 
 
 
0
0


0
0
#HDR
-1
-1
#GR
nm
%T
1.0
0.0
1100,000000
-1,000000
901
8
90,286284
0,003061
#DATA
1100,000000	53,856696
1099,000000	53,785810
1098,000000	53,710815
1097,000000	53,625619
1096,000000	53,529270
1095,000000	53,425905
1094,000000	53,328074
1093,000000	53,265312
1092,000000	53,182825
1091,000000	53,079522
1090,000000	52,995756
1089,000000	52,883085
1088,000000	52,820185
1087,000000	52,736629
1086,000000	52,634865
1085,000000	52,561117
1084,000000	52,496154
1083,000000	52,391341
1082,000000	52,298621
1081,000000	52,207569
1080,000000	52,084750
1079,000000	52,011934
1078,000000	51,930449
1077,000000	51,838172
1076,000000	51,743149
1075,000000	51,655668
1074,000000	51,565905
1073,000000	51,480048
1072,000000	51,393997
1071,000000	51,302530
1070,000000	51,205452
1069,000000	51,136400
1068,000000	51,040738
1067,000000	50,949191
1066,000000	50,859238
1065,000000	50,764647
1064,000000	50,682761
1063,000000	50,575752
1062,000000	50,470038
1061,000000	50,376340
1060,000000	50,297127
1059,000000	50,217897
1058,000000	50,130882
1057,000000	50,040648
1056,000000	49,956136
1055,000000	49,877676
1054,000000	49,777405
1053,000000	49,671269
1052,000000	49,578368
1051,000000	49,488077
1050,000000	49,392573
1049,000000	49,298244
1048,000000	49,207352
1047,000000	49,115344
1046,000000	49,023075
1045,000000	48,929801
1044,000000	48,830449
1043,000000	48,742141
1042,000000	48,642844
1041,000000	48,549711
1040,000000	48,465437
1039,000000	48,366903
1038,000000	48,276889
1037,000000	48,180811
1036,000000	48,086553
1035,000000	47,996257
1034,000000	47,903747
1033,000000	47,802493
1032,000000	47,710460
1031,000000	47,616356
1030,000000	47,522420
1029,000000	47,444743
1028,000000	47,352875
1027,000000	47,256785
1026,000000	47,156737
1025,000000	47,060535
1024,000000	46,980773
1023,000000	46,876225
1022,000000	46,783900
1021,000000	46,688666
1020,000000	46,590032
1019,000000	46,496538
1018,000000	46,402517
1017,000000	46,302277
1016,000000	46,203054
1015,000000	46,109070
1014,000000	46,021126
1013,000000	45,915317
1012,000000	45,821596
1011,000000	45,724985
1010,000000	45,626792
1009,000000	45,534112
1008,000000	45,442974
1007,000000	45,345899
1006,000000	45,252572
1005,000000	45,158569
1004,000000	45,057848
1003,000000	44,965975
1002,000000	44,863858
1001,000000	44,769139
1000,000000	44,678066
999,000000	44,583504
998,000000	44,491429
997,000000	44,394116
996,000000	44,301104
995,000000	44,211136
994,000000	44,120569
993,000000	44,025681
992,000000	43,929824
991,000000	43,836917
990,000000	43,745424
989,000000	43,651318
988,000000	43,544885
987,000000	43,452179
986,000000	43,359880
985,000000	43,266028
984,000000	43,170490
983,000000	43,073631
982,000000	42,979738
981,000000	42,882986
980,000000	42,786776
979,000000	42,693191
978,000000	42,599795
977,000000	42,505962
976,000000	42,406824
975,000000	42,308642
974,000000	42,214039
973,000000	42,118904
972,000000	42,022277
971,000000	41,926109
970,000000	41,829297
969,000000	41,734956
968,000000	41,651542
967,000000	41,560113
966,000000	41,467126
965,000000	41,375101
964,000000	41,283925
963,000000	41,191718
962,000000	41,097479
961,000000	41,014172
960,000000	40,926407
959,000000	40,829786
958,000000	40,730879
957,000000	40,639725
956,000000	40,547476
955,000000	40,458016
954,000000	40,368783
953,000000	40,273927
952,000000	40,186536
951,000000	40,096377
950,000000	40,004695
949,000000	39,909822
948,000000	39,808864
947,000000	39,728725
946,000000	39,638530
945,000000	39,546551
944,000000	39,456064
943,000000	39,368986
942,000000	39,273084
941,000000	39,176455
940,000000	39,082740
939,000000	38,991855
938,000000	38,901650
937,000000	38,810691
936,000000	38,726174
935,000000	38,641277
934,000000	38,553633
933,000000	38,463620
932,000000	38,376464
931,000000	38,299635
930,000000	38,222149
929,000000	38,138594
928,000000	38,046862
927,000000	37,951479
926,000000	37,869379
925,000000	37,785719
924,000000	37,702599
923,000000	37,622010
922,000000	37,536770
921,000000	37,456696
920,000000	37,371301
919,000000	37,282818
918,000000	37,196537
917,000000	37,121414
916,000000	37,040428
915,000000	36,956192
914,000000	36,873000
913,000000	36,791614
912,000000	36,706807
911,000000	36,619059
910,000000	36,540176
909,000000	36,458388
908,000000	36,369731
907,000000	36,285462
906,000000	36,219008
905,000000	36,149765
904,000000	36,069946
903,000000	35,984606
902,000000	35,914843
901,000000	35,832350
900,000000	35,748840
899,000000	35,675598
898,000000	35,608938
897,000000	35,529391
896,000000	35,453812
895,000000	35,381474
894,000000	35,313392
893,000000	35,246790
892,000000	35,175520
891,000000	35,091930
890,000000	35,027092
889,000000	34,959561
888,000000	34,885335
887,000000	34,812557
886,000000	34,756126
885,000000	34,688636
884,000000	34,620097
883,000000	34,554098
882,000000	34,489354
881,000000	34,406816
880,000000	34,341308
879,000000	34,277039
878,000000	34,211706
877,000000	34,148079
876,000000	34,084170
875,000000	34,024173
874,000000	33,956381
873,000000	33,886541
872,000000	33,825027
871,000000	33,772565
870,000000	33,707060
869,000000	33,647795
868,000000	33,590578
867,000000	33,527406
866,000000	33,464265
865,000000	33,407333
864,000000	33,357059
863,000000	33,302821
862,000000	33,239764
861,000000	33,194950
860,000000	33,143133
859,000000	33,082834
858,000000	33,031470
857,000000	32,997467
856,000000	32,952652
855,000000	32,894362
854,000000	32,846673
853,000000	32,799005
852,000000	32,745553
851,000000	32,702661
850,000000	32,637038
849,000000	32,595758
848,000000	32,556736
847,000000	32,506370
846,000000	32,459059
845,000000	32,438729
844,000000	32,394431
843,000000	32,346866
842,000000	32,304970
841,000000	32,252922
840,000000	32,214194
839,000000	32,185026
838,000000	32,152776
837,000000	32,111658
836,000000	32,064817
835,000000	32,037105
834,000000	31,999923
833,000000	31,961391
832,000000	31,927480
831,000000	31,901619
830,000000	31,882800
829,000000	31,838368
828,000000	31,802667
827,000000	31,779688
826,000000	31,750205
825,000000	31,733588
824,000000	31,712958
823,000000	31,687481
822,000000	31,660510
821,000000	31,638366
820,000000	31,630848
819,000000	31,600030
818,000000	31,574704
817,000000	31,551474
816,000000	31,515846
815,000000	31,513936
814,000000	31,491614
813,000000	31,477305
812,000000	31,465797
811,000000	31,443089
810,000000	31,434924
809,000000	31,413039
808,000000	31,401577
807,000000	31,395797
806,000000	31,384314
805,000000	31,372661
804,000000	31,367398
803,000000	31,350285
802,000000	31,336294
801,000000	31,338067
800,000000	31,335748
799,000000	31,327556
798,000000	31,329171
797,000000	31,329451
796,000000	31,321808
795,000000	31,316761
794,000000	31,326596
793,000000	31,322987
792,000000	31,323800
791,000000	31,334506
790,000000	31,339446
789,000000	31,341888
788,000000	31,348631
787,000000	31,349409
786,000000	31,346360
785,000000	31,353243
784,000000	31,386897
783,000000	31,403207
782,000000	31,405524
781,000000	31,409557
780,000000	31,433847
779,000000	31,443496
778,000000	31,455090
777,000000	31,468134
776,000000	31,479547
775,000000	31,489436
774,000000	31,525020
773,000000	31,547099
772,000000	31,568476
771,000000	31,590816
770,000000	31,614501
769,000000	31,645393
768,000000	31,665599
767,000000	31,697552
766,000000	31,727758
765,000000	31,747263
764,000000	31,769916
763,000000	31,821403
762,000000	31,858343
761,000000	31,896901
760,000000	31,942427
759,000000	31,976602
758,000000	32,004712
757,000000	32,036966
756,000000	32,078075
755,000000	32,124604
754,000000	32,165715
753,000000	32,214057
752,000000	32,255947
751,000000	32,295511
750,000000	32,337233
749,000000	32,385650
748,000000	32,450612
747,000000	32,508468
746,000000	32,560467
745,000000	32,610925
744,000000	32,665676
743,000000	32,731631
742,000000	32,796418
741,000000	32,862723
740,000000	32,927781
739,000000	32,990545
738,000000	33,062661
737,000000	33,125078
736,000000	33,192469
735,000000	33,265268
734,000000	33,341552
733,000000	33,419763
732,000000	33,497541
731,000000	33,569091
730,000000	33,643805
729,000000	33,727276
728,000000	33,817173
727,000000	33,904606
726,000000	33,987157
725,000000	34,074969
724,000000	34,167413
723,000000	34,253002
722,000000	34,331521
721,000000	34,432593
720,000000	34,530601
719,000000	34,625562
718,000000	34,731763
717,000000	34,834183
716,000000	34,944014
715,000000	35,044269
714,000000	35,147023
713,000000	35,270078
712,000000	35,392262
711,000000	35,509395
710,000000	35,625270
709,000000	35,748187
708,000000	35,880135
707,000000	35,995110
706,000000	36,113403
705,000000	36,244188
704,000000	36,382910
703,000000	36,522195
702,000000	36,653625
701,000000	36,792817
700,000000	36,929960
699,000000	37,070330
698,000000	37,214562
697,000000	37,355109
696,000000	37,511781
695,000000	37,659586
694,000000	37,807780
693,000000	37,961452
692,000000	38,120597
691,000000	38,277617
690,000000	38,444171
689,000000	38,609085
688,000000	38,776350
687,000000	38,956574
686,000000	39,129381
685,000000	39,298616
684,000000	39,487508
683,000000	39,685101
682,000000	39,872159
681,000000	40,064555
680,000000	40,272711
679,000000	40,478988
678,000000	40,686742
677,000000	40,902096
676,000000	41,126045
675,000000	41,352962
674,000000	41,579376
673,000000	41,810333
672,000000	42,047223
671,000000	42,280023
670,000000	42,509208
669,000000	42,756642
668,000000	42,999752
667,000000	43,226695
666,000000	43,447231
665,000000	43,675660
664,000000	43,882921
663,000000	44,086002
662,000000	44,289202
661,000000	44,469197
660,000000	44,644026
659,000000	44,830277
658,000000	45,021037
657,000000	45,212661
656,000000	45,410109
655,000000	45,600556
654,000000	45,846404
653,000000	46,101629
652,000000	46,358891
651,000000	46,632573
650,000000	46,896054
649,000000	47,168773
648,000000	47,445051
647,000000	47,719988
646,000000	47,991722
645,000000	48,282947
644,000000	48,566938
643,000000	48,863242
642,000000	49,158357
641,000000	49,437369
640,000000	49,730071
639,000000	50,034182
638,000000	50,332128
637,000000	50,624238
636,000000	50,916745
635,000000	51,222988
634,000000	51,534175
633,000000	51,833009
632,000000	52,133066
631,000000	52,441997
630,000000	52,750388
629,000000	53,085981
628,000000	53,413221
627,000000	53,727193
626,000000	54,034284
625,000000	54,351903
624,000000	54,671567
623,000000	54,989480
622,000000	55,306496
621,000000	55,627732
620,000000	55,960183
619,000000	56,292741
618,000000	56,628719
617,000000	56,968642
616,000000	57,308901
615,000000	57,646293
614,000000	57,992776
613,000000	58,339305
612,000000	58,680746
611,000000	59,028784
610,000000	59,388935
609,000000	59,719533
608,000000	60,063708
607,000000	60,408282
606,000000	60,751804
605,000000	61,094452
604,000000	61,436055
603,000000	61,771315
602,000000	62,105058
601,000000	62,438462
600,000000	62,776199
599,000000	63,128394
598,000000	63,495645
597,000000	63,843569
596,000000	64,185431
595,000000	64,525501
594,000000	64,858971
593,000000	65,212318
592,000000	65,553752
591,000000	65,890493
590,000000	66,227437
589,000000	66,569004
588,000000	66,933289
587,000000	67,272724
586,000000	67,617459
585,000000	67,974973
584,000000	68,342852
583,000000	68,711362
582,000000	69,073061
581,000000	69,431090
580,000000	69,788005
579,000000	70,144328
578,000000	70,489538
577,000000	70,839032
576,000000	71,191189
575,000000	71,536761
574,000000	71,869068
573,000000	72,190767
572,000000	72,524777
571,000000	72,853962
570,000000	73,182100
569,000000	73,512980
568,000000	73,849344
567,000000	74,179417
566,000000	74,516538
565,000000	74,844860
564,000000	75,154663
563,000000	75,444228
562,000000	75,751867
561,000000	76,072212
560,000000	76,371286
559,000000	76,659903
558,000000	76,964725
557,000000	77,240956
556,000000	77,542235
555,000000	77,824233
554,000000	78,104056
553,000000	78,402527
552,000000	78,664784
551,000000	78,934047
550,000000	79,225548
549,000000	79,514256
548,000000	79,791432
547,000000	80,060498
546,000000	80,329965
545,000000	80,579912
544,000000	80,823530
543,000000	81,078255
542,000000	81,363188
541,000000	81,587800
540,000000	81,842042
539,000000	82,076706
538,000000	82,288841
537,000000	82,529890
536,000000	82,760923
535,000000	82,991615
534,000000	83,208785
533,000000	83,426623
532,000000	83,673604
531,000000	83,884390
530,000000	84,097389
529,000000	84,299877
528,000000	84,485579
527,000000	84,658231
526,000000	84,874478
525,000000	85,062284
524,000000	85,243764
523,000000	85,427407
522,000000	85,611584
521,000000	85,762880
520,000000	85,928356
519,000000	86,086289
518,000000	86,247306
517,000000	86,414088
516,000000	86,540048
515,000000	86,695334
514,000000	86,847623
513,000000	86,988252
512,000000	87,116234
511,000000	87,239917
510,000000	87,379236
509,000000	87,509166
508,000000	87,642277
507,000000	87,765948
506,000000	87,832031
505,000000	87,933875
504,000000	88,046803
503,000000	88,160330
502,000000	88,258319
501,000000	88,323990
500,000000	88,452398
499,000000	88,555573
498,000000	88,634250
497,000000	88,707149
496,000000	88,797650
495,000000	88,851603
494,000000	88,959370
493,000000	89,044491
492,000000	89,108148
491,000000	89,178708
490,000000	89,261956
489,000000	89,318141
488,000000	89,394054
487,000000	89,478472
486,000000	89,551415
485,000000	89,614438
484,000000	89,657914
483,000000	89,729190
482,000000	89,812736
481,000000	89,890505
480,000000	89,961149
479,000000	90,032954
478,000000	90,096046
477,000000	90,150066
476,000000	90,197083
475,000000	90,241398
474,000000	90,247734
473,000000	90,275672
472,000000	90,286284
471,000000	90,275101
470,000000	90,279625
469,000000	90,236150
468,000000	90,202335
467,000000	90,157389
466,000000	90,105215
465,000000	90,074679
464,000000	90,016358
463,000000	89,975254
462,000000	89,935118
461,000000	89,882213
460,000000	89,806943
459,000000	89,791154
458,000000	89,764223
457,000000	89,729305
456,000000	89,688323
455,000000	89,617996
454,000000	89,589686
453,000000	89,567296
452,000000	89,556603
451,000000	89,561202
450,000000	89,532781
449,000000	89,530715
448,000000	89,518315
447,000000	89,488073
446,000000	89,454045
445,000000	89,455232
444,000000	89,445162
443,000000	89,403846
442,000000	89,411881
441,000000	89,423929
440,000000	89,356474
439,000000	89,386600
438,000000	89,291533
437,000000	89,267474
436,000000	89,257747
435,000000	89,220766
434,000000	89,254549
433,000000	89,231943
432,000000	89,215355
431,000000	89,211549
430,000000	89,211089
429,000000	89,194911
428,000000	89,159935
427,000000	89,130309
426,000000	89,103933
425,000000	89,096485
424,000000	89,116965
423,000000	89,144720
422,000000	89,060102
421,000000	89,073676
420,000000	89,122132
419,000000	89,130604
418,000000	89,054907
417,000000	89,137491
416,000000	89,088262
415,000000	89,089512
414,000000	89,116175
413,000000	89,093682
412,000000	89,129698
411,000000	89,134177
410,000000	89,109744
409,000000	89,047256
408,000000	88,965835
407,000000	89,027470
406,000000	88,863003
405,000000	88,796806
404,000000	88,739245
403,000000	88,589158
402,000000	88,477054
401,000000	88,368292
400,000000	88,082674
399,000000	87,096768
398,000000	87,277836
397,000000	87,059739
396,000000	86,938824
395,000000	87,252943
394,000000	87,357904
393,000000	87,098711
392,000000	86,918354
391,000000	86,561281
390,000000	86,794800
389,000000	86,969836
388,000000	86,804417
387,000000	86,404967
386,000000	86,125203
385,000000	86,009172
384,000000	85,986508
383,000000	85,888962
382,000000	85,494057
381,000000	85,489678
380,000000	85,502954
379,000000	85,552570
378,000000	85,690202
377,000000	85,980222
376,000000	85,960233
375,000000	85,593344
374,000000	85,163728
373,000000	84,975048
372,000000	85,311711
371,000000	84,942450
370,000000	85,049017
369,000000	85,203576
368,000000	85,172281
367,000000	84,886931
366,000000	84,619155
365,000000	84,265479
364,000000	84,110875
363,000000	84,106856
362,000000	83,891218
361,000000	83,882557
360,000000	83,559214
359,000000	83,311672
358,000000	83,125119
357,000000	82,775691
356,000000	82,333037
355,000000	81,950303
354,000000	81,854184
353,000000	81,663166
352,000000	80,766564
351,000000	80,415529
350,000000	80,092744
349,000000	79,679437
348,000000	79,122301
347,000000	78,418119
346,000000	77,675743
345,000000	76,811479
344,000000	76,047049
343,000000	75,332792
342,000000	74,542801
341,000000	73,657466
340,000000	72,654870
339,000000	71,481955
338,000000	70,315815
337,000000	69,240929
336,000000	67,922529
335,000000	66,392761
334,000000	64,923992
333,000000	63,361529
332,000000	61,603565
331,000000	59,680995
330,000000	57,632065
329,000000	55,623132
328,000000	53,528565
327,000000	51,308516
326,000000	49,002726
325,000000	46,676513
324,000000	44,241381
323,000000	41,774946
322,000000	39,258601
321,000000	36,682134
320,000000	34,148689
319,000000	31,550231
318,000000	28,793348
317,000000	26,002501
316,000000	23,321751
315,000000	20,700887
314,000000	18,061175
313,000000	15,707913
312,000000	13,514163
311,000000	11,381612
310,000000	9,419916
309,000000	7,740689
308,000000	6,201933
307,000000	4,849676
306,000000	3,697899
305,000000	2,698813
304,000000	1,868952
303,000000	1,174060
302,000000	0,606124
301,000000	0,198436
300,000000	0,009182
299,000000	0,008778
298,000000	0,008408
297,000000	0,008439
296,000000	0,008576
295,000000	0,008362
294,000000	0,008310
293,000000	0,008526
292,000000	0,008494
291,000000	0,008361
290,000000	0,008329
289,000000	0,008186
288,000000	0,008543
287,000000	0,008343
286,000000	0,008098
285,000000	0,008193
284,000000	0,008270
283,000000	0,008193
282,000000	0,008178
281,000000	0,008027
280,000000	0,007664
279,000000	0,007703
278,000000	0,007469
277,000000	0,007603
276,000000	0,007801
275,000000	0,007689
274,000000	0,007214
273,000000	0,007025
272,000000	0,007143
271,000000	0,006997
270,000000	0,006544
269,000000	0,006485
268,000000	0,006271
267,000000	0,006062
266,000000	0,006025
265,000000	0,005996
264,000000	0,005651
263,000000	0,005453
262,000000	0,005155
261,000000	0,005117
260,000000	0,005046
259,000000	0,004651
258,000000	0,004811
257,000000	0,004699
256,000000	0,004465
255,000000	0,004354
254,000000	0,004406
253,000000	0,004148
252,000000	0,004114
251,000000	0,003967
250,000000	0,003802
249,000000	0,003709
248,000000	0,003738
247,000000	0,003652
246,000000	0,003561
245,000000	0,003510
244,000000	0,003497
243,000000	0,003472
242,000000	0,003245
241,000000	0,003172
240,000000	0,003138
239,000000	0,003094
238,000000	0,003061
237,000000	0,003165
236,000000	0,003262
235,000000	0,003212
234,000000	0,003107
233,000000	0,003160
232,000000	0,003322
231,000000	0,003295
230,000000	0,003250
229,000000	0,003299
228,000000	0,003464
227,000000	0,003305
226,000000	0,003337
225,000000	0,003530
224,000000	0,003708
223,000000	0,003741
222,000000	0,003805
221,000000	0,003922
220,000000	0,003869
219,000000	0,003877
218,000000	0,004073
217,000000	0,004167
216,000000	0,004377
215,000000	0,004396
214,000000	0,004369
213,000000	0,004484
212,000000	0,004944
211,000000	0,004830
210,000000	0,004969
209,000000	0,005317
208,000000	0,005684
207,000000	0,005734
206,000000	0,006133
205,000000	0,006817
204,000000	0,007188
203,000000	0,007407
202,000000	0,008201
201,000000	0,009083
200,000000	0,009263
