PE UV       SUBTECH     SPECTRUM    ASCII       PEDS        4.00        
   -1
glass_empty.Probe.asc
24/07/02
09:53:20.00
24/07/02
09:53:20.00
student

200,000000
1
Lambda 365
365K7092207
  / Unknown

480
1
0,5
0
0
Both on
1
1
1
None
0
0
0
0
 
 
0
0
0
0
0
 
 
 
0
 
0
400
0
 
0
 
 
 
0
0
0
 
0
 
 
 
0
 
 
0
0
0
0
0
 
 
 
 
0
0


0
0
#HDR
-1
-1
#GR
nm
%T
1.0
0.0
1100,000000
-1,000000
901
8
78,372460
0,003134
#DATA
1100,000000	78,372460
1099,000000	78,323594
1098,000000	78,297053
1097,000000	78,311563
1096,000000	78,341035
1095,000000	78,316387
1094,000000	78,319241
1093,000000	78,338322
1092,000000	78,354923
1091,000000	78,362771
1090,000000	78,364439
1089,000000	78,297272
1088,000000	78,298417
1087,000000	78,313542
1086,000000	78,326901
1085,000000	78,343881
1084,000000	78,295266
1083,000000	78,280664
1082,000000	78,282183
1081,000000	78,292876
1080,000000	78,309494
1079,000000	78,308919
1078,000000	78,287019
1077,000000	78,260409
1076,000000	78,246737
1075,000000	78,261123
1074,000000	78,296992
1073,000000	78,265248
1072,000000	78,243074
1071,000000	78,243758
1070,000000	78,258465
1069,000000	78,275606
1068,000000	78,271009
1067,000000	78,254064
1066,000000	78,228313
1065,000000	78,202066
1064,000000	78,215260
1063,000000	78,225536
1062,000000	78,223817
1061,000000	78,209062
1060,000000	78,185143
1059,000000	78,166563
1058,000000	78,171752
1057,000000	78,198391
1056,000000	78,223167
1055,000000	78,230386
1054,000000	78,234702
1053,000000	78,185727
1052,000000	78,158026
1051,000000	78,149760
1050,000000	78,155184
1049,000000	78,183947
1048,000000	78,190929
1047,000000	78,187698
1046,000000	78,171391
1045,000000	78,142230
1044,000000	78,107532
1043,000000	78,107241
1042,000000	78,106681
1041,000000	78,116338
1040,000000	78,133935
1039,000000	78,133315
1038,000000	78,123082
1037,000000	78,108519
1036,000000	78,089309
1035,000000	78,071290
1034,000000	78,068395
1033,000000	78,069242
1032,000000	78,087613
1031,000000	78,101408
1030,000000	78,099847
1029,000000	78,084304
1028,000000	78,052215
1027,000000	78,044072
1026,000000	78,043236
1025,000000	78,046544
1024,000000	78,060999
1023,000000	78,050765
1022,000000	78,052561
1021,000000	78,047307
1020,000000	78,032938
1019,000000	78,018820
1018,000000	78,013195
1017,000000	77,998818
1016,000000	77,989187
1015,000000	77,986608
1014,000000	77,987155
1013,000000	77,985711
1012,000000	77,994088
1011,000000	77,999308
1010,000000	77,997587
1009,000000	77,990176
1008,000000	77,986819
1007,000000	77,965857
1006,000000	77,949819
1005,000000	77,940641
1004,000000	77,932092
1003,000000	77,911144
1002,000000	77,915778
1001,000000	77,925953
1000,000000	77,934742
999,000000	77,938829
998,000000	77,935376
997,000000	77,934964
996,000000	77,924956
995,000000	77,915796
994,000000	77,914395
993,000000	77,892544
992,000000	77,886689
991,000000	77,884794
990,000000	77,878724
989,000000	77,864311
988,000000	77,847193
987,000000	77,848587
986,000000	77,854321
985,000000	77,861944
984,000000	77,867073
983,000000	77,856353
982,000000	77,855392
981,000000	77,844046
980,000000	77,838879
979,000000	77,845813
978,000000	77,842779
977,000000	77,831440
976,000000	77,829556
975,000000	77,828682
974,000000	77,824139
973,000000	77,820019
972,000000	77,813609
971,000000	77,823282
970,000000	77,822216
969,000000	77,806796
968,000000	77,805840
967,000000	77,810646
966,000000	77,802542
965,000000	77,795920
964,000000	77,792036
963,000000	77,777835
962,000000	77,771147
961,000000	77,767858
960,000000	77,758872
959,000000	77,746717
958,000000	77,743547
957,000000	77,739034
956,000000	77,741302
955,000000	77,738258
954,000000	77,729773
953,000000	77,723954
952,000000	77,727414
951,000000	77,724213
950,000000	77,725000
949,000000	77,726925
948,000000	77,720896
947,000000	77,712388
946,000000	77,711026
945,000000	77,714152
944,000000	77,717054
943,000000	77,715151
942,000000	77,714779
941,000000	77,719813
940,000000	77,715063
939,000000	77,699834
938,000000	77,678828
937,000000	77,658046
936,000000	77,654648
935,000000	77,647615
934,000000	77,644855
933,000000	77,654913
932,000000	77,649225
931,000000	77,637273
930,000000	77,626223
929,000000	77,623936
928,000000	77,630937
927,000000	77,618355
926,000000	77,619846
925,000000	77,628010
924,000000	77,636406
923,000000	77,641376
922,000000	77,647756
921,000000	77,642712
920,000000	77,630728
919,000000	77,622134
918,000000	77,620922
917,000000	77,613138
916,000000	77,609634
915,000000	77,593095
914,000000	77,580339
913,000000	77,579790
912,000000	77,577266
911,000000	77,562450
910,000000	77,578374
909,000000	77,584345
908,000000	77,566010
907,000000	77,560048
906,000000	77,560286
905,000000	77,549576
904,000000	77,537650
903,000000	77,534504
902,000000	77,549103
901,000000	77,554218
900,000000	77,552989
899,000000	77,553176
898,000000	77,555561
897,000000	77,553362
896,000000	77,543189
895,000000	77,525610
894,000000	77,511596
893,000000	77,506353
892,000000	77,509868
891,000000	77,512074
890,000000	77,520770
889,000000	77,513540
888,000000	77,493925
887,000000	77,482355
886,000000	77,475457
885,000000	77,474071
884,000000	77,480668
883,000000	77,494470
882,000000	77,508079
881,000000	77,459762
880,000000	77,476024
879,000000	77,481374
878,000000	77,477134
877,000000	77,489597
876,000000	77,470632
875,000000	77,453895
874,000000	77,435879
873,000000	77,433162
872,000000	77,460346
871,000000	77,474843
870,000000	77,454560
869,000000	77,431650
868,000000	77,414809
867,000000	77,409463
866,000000	77,436987
865,000000	77,439145
864,000000	77,423339
863,000000	77,403621
862,000000	77,395511
861,000000	77,413557
860,000000	77,424753
859,000000	77,414945
858,000000	77,401111
857,000000	77,399236
856,000000	77,406047
855,000000	77,399568
854,000000	77,410301
853,000000	77,410642
852,000000	77,385749
851,000000	77,368309
850,000000	77,374751
849,000000	77,374923
848,000000	77,370858
847,000000	77,368480
846,000000	77,376242
845,000000	77,380271
844,000000	77,372869
843,000000	77,364642
842,000000	77,364278
841,000000	77,376066
840,000000	77,339822
839,000000	77,352384
838,000000	77,368684
837,000000	77,358564
836,000000	77,316166
835,000000	77,346038
834,000000	77,355649
833,000000	77,348100
832,000000	77,327522
831,000000	77,298698
830,000000	77,327316
829,000000	77,307341
828,000000	77,300949
827,000000	77,315192
826,000000	77,314092
825,000000	77,306726
824,000000	77,305214
823,000000	77,308122
822,000000	77,308159
821,000000	77,295378
820,000000	77,280139
819,000000	77,299454
818,000000	77,306312
817,000000	77,294089
816,000000	77,277813
815,000000	77,283273
814,000000	77,269240
813,000000	77,265448
812,000000	77,262609
811,000000	77,242362
810,000000	77,241946
809,000000	77,229487
808,000000	77,225188
807,000000	77,231035
806,000000	77,239133
805,000000	77,219588
804,000000	77,225982
803,000000	77,223544
802,000000	77,215815
801,000000	77,211545
800,000000	77,208323
799,000000	77,214515
798,000000	77,215883
797,000000	77,206600
796,000000	77,193625
795,000000	77,209182
794,000000	77,183561
793,000000	77,163040
792,000000	77,160409
791,000000	77,170821
790,000000	77,168432
789,000000	77,157097
788,000000	77,151310
787,000000	77,150198
786,000000	77,143823
785,000000	77,117102
784,000000	77,141955
783,000000	77,142768
782,000000	77,131618
781,000000	77,123251
780,000000	77,129599
779,000000	77,110650
778,000000	77,100624
777,000000	77,097548
776,000000	77,092434
775,000000	77,076794
774,000000	77,062036
773,000000	77,062888
772,000000	77,078843
771,000000	77,083290
770,000000	77,061965
769,000000	77,070446
768,000000	77,041564
767,000000	77,038241
766,000000	77,036652
765,000000	77,023188
764,000000	77,038668
763,000000	77,029824
762,000000	77,019970
761,000000	77,024204
760,000000	77,033326
759,000000	77,002303
758,000000	76,987559
757,000000	76,985498
756,000000	76,989316
755,000000	76,993094
754,000000	76,992442
753,000000	76,997118
752,000000	76,984832
751,000000	76,975672
750,000000	76,970749
749,000000	76,960862
748,000000	76,968621
747,000000	76,962126
746,000000	76,953869
745,000000	76,942855
744,000000	76,927081
743,000000	76,936044
742,000000	76,931762
741,000000	76,929656
740,000000	76,928265
739,000000	76,924663
738,000000	76,927561
737,000000	76,909506
736,000000	76,913776
735,000000	76,917627
734,000000	76,902847
733,000000	76,886634
732,000000	76,878638
731,000000	76,889008
730,000000	76,901989
729,000000	76,901437
728,000000	76,873995
727,000000	76,876976
726,000000	76,868708
725,000000	76,861688
724,000000	76,860128
723,000000	76,858493
722,000000	76,849679
721,000000	76,843060
720,000000	76,842234
719,000000	76,839213
718,000000	76,821686
717,000000	76,816948
716,000000	76,809976
715,000000	76,801534
714,000000	76,797110
713,000000	76,799393
712,000000	76,779749
711,000000	76,778830
710,000000	76,769239
709,000000	76,761754
708,000000	76,768728
707,000000	76,772965
706,000000	76,754038
705,000000	76,736569
704,000000	76,728278
703,000000	76,729316
702,000000	76,728323
701,000000	76,719699
700,000000	76,707938
699,000000	76,702342
698,000000	76,701403
697,000000	76,687245
696,000000	76,679473
695,000000	76,684469
694,000000	76,680689
693,000000	76,666222
692,000000	76,658362
691,000000	76,661885
690,000000	76,647758
689,000000	76,640750
688,000000	76,640850
687,000000	76,633957
686,000000	76,619914
685,000000	76,603978
684,000000	76,595627
683,000000	76,595412
682,000000	76,596616
681,000000	76,567580
680,000000	76,572571
679,000000	76,573202
678,000000	76,567324
677,000000	76,560214
676,000000	76,550009
675,000000	76,528075
674,000000	76,518188
673,000000	76,517685
672,000000	76,519199
671,000000	76,514550
670,000000	76,487954
669,000000	76,484599
668,000000	76,484051
667,000000	76,471672
666,000000	76,450729
665,000000	76,450055
664,000000	76,444266
663,000000	76,433783
662,000000	76,422299
661,000000	76,417455
660,000000	76,412016
659,000000	76,409128
658,000000	76,392600
657,000000	76,363915
656,000000	76,348064
655,000000	76,346587
654,000000	76,353830
653,000000	76,351451
652,000000	76,341020
651,000000	76,337077
650,000000	76,343993
649,000000	76,321809
648,000000	76,312436
647,000000	76,313281
646,000000	76,304902
645,000000	76,301605
644,000000	76,296919
643,000000	76,279918
642,000000	76,264188
641,000000	76,264518
640,000000	76,262964
639,000000	76,259383
638,000000	76,248589
637,000000	76,236081
636,000000	76,229274
635,000000	76,235191
634,000000	76,220374
633,000000	76,211286
632,000000	76,197557
631,000000	76,177781
630,000000	76,173818
629,000000	76,184198
628,000000	76,188799
627,000000	76,179538
626,000000	76,162039
625,000000	76,156366
624,000000	76,153506
623,000000	76,149397
622,000000	76,139675
621,000000	76,129172
620,000000	76,127393
619,000000	76,111168
618,000000	76,102164
617,000000	76,090966
616,000000	76,083309
615,000000	76,086361
614,000000	76,068115
613,000000	76,065833
612,000000	76,061856
611,000000	76,050125
610,000000	76,032886
609,000000	76,033544
608,000000	76,021382
607,000000	76,016265
606,000000	76,016822
605,000000	76,013538
604,000000	75,984808
603,000000	75,985226
602,000000	75,968432
601,000000	75,949586
600,000000	75,941218
599,000000	75,944306
598,000000	75,957962
597,000000	75,940661
596,000000	75,929646
595,000000	75,928217
594,000000	75,906462
593,000000	75,897186
592,000000	75,875573
591,000000	75,868536
590,000000	75,870222
589,000000	75,858738
588,000000	75,861675
587,000000	75,843572
586,000000	75,839485
585,000000	75,838743
584,000000	75,822404
583,000000	75,824866
582,000000	75,813438
581,000000	75,799581
580,000000	75,790778
579,000000	75,788025
578,000000	75,773193
577,000000	75,756966
576,000000	75,753055
575,000000	75,749101
574,000000	75,735091
573,000000	75,712235
572,000000	75,713651
571,000000	75,708977
570,000000	75,699221
569,000000	75,686008
568,000000	75,669453
567,000000	75,657720
566,000000	75,658012
565,000000	75,650107
564,000000	75,631589
563,000000	75,613956
562,000000	75,582047
561,000000	75,579750
560,000000	75,569615
559,000000	75,544247
558,000000	75,516083
557,000000	75,534104
556,000000	75,517094
555,000000	75,512368
554,000000	75,507563
553,000000	75,482740
552,000000	75,469500
551,000000	75,447046
550,000000	75,436758
549,000000	75,431932
548,000000	75,419973
547,000000	75,386789
546,000000	75,374563
545,000000	75,370180
544,000000	75,354865
543,000000	75,332132
542,000000	75,345096
541,000000	75,324718
540,000000	75,303663
539,000000	75,276012
538,000000	75,253808
537,000000	75,267320
536,000000	75,224458
535,000000	75,227752
534,000000	75,215524
533,000000	75,189593
532,000000	75,191764
531,000000	75,171284
530,000000	75,146414
529,000000	75,124474
528,000000	75,111291
527,000000	75,109242
526,000000	75,100124
525,000000	75,071889
524,000000	75,064602
523,000000	75,063908
522,000000	75,043838
521,000000	75,003294
520,000000	74,989425
519,000000	74,982471
518,000000	74,970464
517,000000	74,946373
516,000000	74,913979
515,000000	74,910744
514,000000	74,900262
513,000000	74,877603
512,000000	74,844056
511,000000	74,805948
510,000000	74,797890
509,000000	74,798721
508,000000	74,781843
507,000000	74,746489
506,000000	74,726397
505,000000	74,703896
504,000000	74,701264
503,000000	74,692058
502,000000	74,666685
501,000000	74,632043
500,000000	74,605204
499,000000	74,609975
498,000000	74,583958
497,000000	74,542762
496,000000	74,539215
495,000000	74,513241
494,000000	74,519587
493,000000	74,483620
492,000000	74,435941
491,000000	74,431199
490,000000	74,414931
489,000000	74,420373
488,000000	74,396178
487,000000	74,357462
486,000000	74,330319
485,000000	74,318742
484,000000	74,272954
483,000000	74,248018
482,000000	74,230353
481,000000	74,208031
480,000000	74,197173
479,000000	74,188471
478,000000	74,157499
477,000000	74,132545
476,000000	74,118170
475,000000	74,075476
474,000000	74,051033
473,000000	74,032232
472,000000	74,006977
471,000000	73,982342
470,000000	73,986532
469,000000	73,959625
468,000000	73,921998
467,000000	73,878251
466,000000	73,840895
465,000000	73,832101
464,000000	73,803365
463,000000	73,787317
462,000000	73,764349
461,000000	73,720740
460,000000	73,652603
459,000000	73,657584
458,000000	73,623534
457,000000	73,590998
456,000000	73,577992
455,000000	73,483929
454,000000	73,453613
453,000000	73,439210
452,000000	73,418315
451,000000	73,375685
450,000000	73,323521
449,000000	73,291104
448,000000	73,232951
447,000000	73,165330
446,000000	73,116801
445,000000	73,117215
444,000000	73,109074
443,000000	73,048325
442,000000	73,017950
441,000000	73,008938
440,000000	72,969007
439,000000	72,947656
438,000000	72,888586
437,000000	72,841412
436,000000	72,799208
435,000000	72,768170
434,000000	72,804484
433,000000	72,806273
432,000000	72,747513
431,000000	72,718287
430,000000	72,724233
429,000000	72,707775
428,000000	72,691724
427,000000	72,627150
426,000000	72,588759
425,000000	72,566705
424,000000	72,540338
423,000000	72,525102
422,000000	72,456750
421,000000	72,443261
420,000000	72,440980
419,000000	72,420750
418,000000	72,383087
417,000000	72,388884
416,000000	72,340449
415,000000	72,311337
414,000000	72,290249
413,000000	72,247276
412,000000	72,236645
411,000000	72,151544
410,000000	72,157083
409,000000	72,196020
408,000000	72,180908
407,000000	72,173561
406,000000	72,124436
405,000000	72,060757
404,000000	72,016743
403,000000	72,011657
402,000000	72,008253
401,000000	71,908412
400,000000	71,615514
399,000000	70,572163
398,000000	70,761243
397,000000	70,867296
396,000000	70,619507
395,000000	70,660790
394,000000	70,704877
393,000000	70,542704
392,000000	70,076124
391,000000	69,980712
390,000000	69,793849
389,000000	69,954083
388,000000	70,101985
387,000000	69,269198
386,000000	69,226421
385,000000	69,038911
384,000000	68,875449
383,000000	68,617221
382,000000	67,966966
381,000000	68,140329
380,000000	68,449925
379,000000	68,450768
378,000000	68,169523
377,000000	68,008814
376,000000	68,394044
375,000000	68,753110
374,000000	68,800294
373,000000	68,627645
372,000000	68,672391
371,000000	68,594177
370,000000	68,720683
369,000000	68,749383
368,000000	68,623200
367,000000	68,488839
366,000000	68,535470
365,000000	68,466021
364,000000	68,502120
363,000000	68,450452
362,000000	67,730770
361,000000	67,714208
360,000000	67,665693
359,000000	67,516344
358,000000	67,217017
357,000000	66,760638
356,000000	66,323276
355,000000	65,988548
354,000000	65,845558
353,000000	65,581273
352,000000	64,759806
351,000000	64,547005
350,000000	64,075631
349,000000	63,551084
348,000000	63,048695
347,000000	62,569528
346,000000	61,946449
345,000000	61,192860
344,000000	60,273254
343,000000	59,365320
342,000000	58,591998
341,000000	57,554093
340,000000	56,568892
339,000000	55,437201
338,000000	54,264964
337,000000	53,117840
336,000000	51,778968
335,000000	50,313713
334,000000	48,740126
333,000000	47,107675
332,000000	45,402732
331,000000	43,489730
330,000000	41,288418
329,000000	39,330991
328,000000	37,377755
327,000000	35,349750
326,000000	33,302984
325,000000	31,081497
324,000000	29,011861
323,000000	26,922187
322,000000	24,761123
321,000000	22,593392
320,000000	20,531544
319,000000	18,308810
318,000000	16,170363
317,000000	14,139068
316,000000	12,195111
315,000000	10,426584
314,000000	8,720994
313,000000	7,313295
312,000000	6,049873
311,000000	4,822616
310,000000	3,779995
309,000000	2,918626
308,000000	2,210814
307,000000	1,573150
306,000000	0,990907
305,000000	0,540494
304,000000	0,246150
303,000000	0,073455
302,000000	0,009266
301,000000	0,008995
300,000000	0,008601
299,000000	0,008783
298,000000	0,008538
297,000000	0,008308
296,000000	0,008188
295,000000	0,008141
294,000000	0,008305
293,000000	0,008585
292,000000	0,008482
291,000000	0,008254
290,000000	0,008239
289,000000	0,008376
288,000000	0,008230
287,000000	0,008186
286,000000	0,008092
285,000000	0,007921
284,000000	0,008152
283,000000	0,007965
282,000000	0,008093
281,000000	0,008195
280,000000	0,007998
279,000000	0,008020
278,000000	0,008034
277,000000	0,007744
276,000000	0,007479
275,000000	0,007422
274,000000	0,007043
273,000000	0,007188
272,000000	0,007044
271,000000	0,006954
270,000000	0,006902
269,000000	0,006293
268,000000	0,006499
267,000000	0,006285
266,000000	0,005962
265,000000	0,005672
264,000000	0,005433
263,000000	0,005400
262,000000	0,005175
261,000000	0,005157
260,000000	0,005084
259,000000	0,004654
258,000000	0,004498
257,000000	0,004475
256,000000	0,004445
255,000000	0,004427
254,000000	0,004397
253,000000	0,004169
252,000000	0,004021
251,000000	0,004008
250,000000	0,003986
249,000000	0,003889
248,000000	0,003765
247,000000	0,003704
246,000000	0,003690
245,000000	0,003577
244,000000	0,003397
243,000000	0,003382
242,000000	0,003311
241,000000	0,003314
240,000000	0,003245
239,000000	0,003134
238,000000	0,003170
237,000000	0,003182
236,000000	0,003232
235,000000	0,003228
234,000000	0,003183
233,000000	0,003174
232,000000	0,003220
231,000000	0,003200
230,000000	0,003266
229,000000	0,003361
228,000000	0,003379
227,000000	0,003470
226,000000	0,003572
225,000000	0,003557
224,000000	0,003517
223,000000	0,003558
222,000000	0,003619
221,000000	0,003651
220,000000	0,003786
219,000000	0,003894
218,000000	0,003929
217,000000	0,004145
216,000000	0,004186
215,000000	0,004396
214,000000	0,004560
213,000000	0,004586
212,000000	0,004642
211,000000	0,004971
210,000000	0,005238
209,000000	0,005486
208,000000	0,005736
207,000000	0,005957
206,000000	0,005996
205,000000	0,006685
204,000000	0,007041
203,000000	0,007224
202,000000	0,008169
201,000000	0,008569
200,000000	0,008869
