PE UV       SUBTECH     SPECTRUM    ASCII       PEDS        4.00        
   -1
glass_water.Probe.asc
24/07/02
09:58:38.00
24/07/02
09:58:38.00
student

200,000000
1
Lambda 365
365K7092207
  / Unknown

480
1
0,5
0
0
Both on
1
1
1
None
0
0
0
0
 
 
0
0
0
0
0
 
 
 
0
 
0
400
0
 
0
 
 
 
0
0
0
 
0
 
 
 
0
 
 
0
0
0
0
0
 
 
 
 
0
0


0
0
#HDR
-1
-1
#GR
nm
%T
1.0
0.0
1100,000000
-1,000000
901
8
81,066933
0,003119
#DATA
1100,000000	69,101018
1099,000000	69,326204
1098,000000	69,520594
1097,000000	69,718655
1096,000000	69,913251
1095,000000	70,056205
1094,000000	70,232134
1093,000000	70,429096
1092,000000	70,638227
1091,000000	70,831085
1090,000000	70,966709
1089,000000	71,113532
1088,000000	71,277972
1087,000000	71,405738
1086,000000	71,514451
1085,000000	71,661011
1084,000000	71,743557
1083,000000	71,858546
1082,000000	71,954929
1081,000000	72,024966
1080,000000	72,083599
1079,000000	72,144019
1078,000000	72,202545
1077,000000	72,245796
1076,000000	72,275224
1075,000000	72,299639
1074,000000	72,335434
1073,000000	72,335775
1072,000000	72,322126
1071,000000	72,308294
1070,000000	72,303008
1069,000000	72,297441
1068,000000	72,270913
1067,000000	72,235042
1066,000000	72,184541
1065,000000	72,119966
1064,000000	72,090005
1063,000000	72,035089
1062,000000	71,951900
1061,000000	71,852203
1060,000000	71,752277
1059,000000	71,673311
1058,000000	71,577849
1057,000000	71,486088
1056,000000	71,389387
1055,000000	71,274732
1054,000000	71,125257
1053,000000	70,959131
1052,000000	70,796148
1051,000000	70,634324
1050,000000	70,471179
1049,000000	70,307929
1048,000000	70,102232
1047,000000	69,889568
1046,000000	69,674976
1045,000000	69,458094
1044,000000	69,232901
1043,000000	69,008908
1042,000000	68,775477
1041,000000	68,546005
1040,000000	68,319315
1039,000000	68,069230
1038,000000	67,797919
1037,000000	67,520197
1036,000000	67,238185
1035,000000	66,952044
1034,000000	66,659236
1033,000000	66,364765
1032,000000	66,067694
1031,000000	65,759119
1030,000000	65,443662
1029,000000	65,138650
1028,000000	64,800370
1027,000000	64,466623
1026,000000	64,125594
1025,000000	63,783418
1024,000000	63,459540
1023,000000	63,103495
1022,000000	62,754948
1021,000000	62,402227
1020,000000	62,047862
1019,000000	61,702646
1018,000000	61,342919
1017,000000	60,993778
1016,000000	60,638063
1015,000000	60,281495
1014,000000	59,938700
1013,000000	59,581482
1012,000000	59,225491
1011,000000	58,870154
1010,000000	58,515725
1009,000000	58,163826
1008,000000	57,824208
1007,000000	57,478183
1006,000000	57,142704
1005,000000	56,816056
1004,000000	56,491586
1003,000000	56,174583
1002,000000	55,865980
1001,000000	55,569403
1000,000000	55,275918
999,000000	54,978176
998,000000	54,694395
997,000000	54,409550
996,000000	54,128689
995,000000	53,856570
994,000000	53,595095
993,000000	53,336320
992,000000	53,079932
991,000000	52,835734
990,000000	52,601725
989,000000	52,377336
988,000000	52,174701
987,000000	51,983611
986,000000	51,794364
985,000000	51,615925
984,000000	51,452450
983,000000	51,291291
982,000000	51,147069
981,000000	51,020630
980,000000	50,914263
979,000000	50,827256
978,000000	50,753971
977,000000	50,699222
976,000000	50,672207
975,000000	50,663207
974,000000	50,664874
973,000000	50,676656
972,000000	50,726232
971,000000	50,768310
970,000000	50,815235
969,000000	50,877910
968,000000	50,962924
967,000000	51,052034
966,000000	51,170548
965,000000	51,314320
964,000000	51,481851
963,000000	51,673733
962,000000	51,944635
961,000000	52,286531
960,000000	52,697417
959,000000	53,191302
958,000000	53,789205
957,000000	54,526687
956,000000	55,367661
955,000000	56,291654
954,000000	57,279892
953,000000	58,311474
952,000000	59,376262
951,000000	60,386650
950,000000	61,362124
949,000000	62,282306
948,000000	63,135154
947,000000	63,939450
946,000000	64,676175
945,000000	65,371274
944,000000	66,041119
943,000000	66,681152
942,000000	67,283778
941,000000	67,853240
940,000000	68,401931
939,000000	68,938630
938,000000	69,471541
937,000000	69,967936
936,000000	70,441727
935,000000	70,905131
934,000000	71,358196
933,000000	71,796755
932,000000	72,216144
931,000000	72,606498
930,000000	72,982442
929,000000	73,345229
928,000000	73,690246
927,000000	73,994632
926,000000	74,299311
925,000000	74,587276
924,000000	74,856760
923,000000	75,109304
922,000000	75,344692
921,000000	75,538364
920,000000	75,724889
919,000000	75,900137
918,000000	76,059767
917,000000	76,209330
916,000000	76,332853
915,000000	76,448526
914,000000	76,548138
913,000000	76,635063
912,000000	76,738707
911,000000	76,798220
910,000000	76,887125
909,000000	76,962535
908,000000	77,014018
907,000000	77,095352
906,000000	77,154552
905,000000	77,207305
904,000000	77,249328
903,000000	77,287266
902,000000	77,342770
901,000000	77,386303
900,000000	77,430144
899,000000	77,481163
898,000000	77,533105
897,000000	77,566661
896,000000	77,601199
895,000000	77,622426
894,000000	77,649713
893,000000	77,690476
892,000000	77,740983
891,000000	77,769047
890,000000	77,817918
889,000000	77,868319
888,000000	77,911462
887,000000	77,946229
886,000000	77,984412
885,000000	78,022388
884,000000	78,059086
883,000000	78,104433
882,000000	78,167626
881,000000	78,173757
880,000000	78,236190
879,000000	78,280271
878,000000	78,308511
877,000000	78,351456
876,000000	78,386960
875,000000	78,417161
874,000000	78,452708
873,000000	78,486991
872,000000	78,512739
871,000000	78,558442
870,000000	78,568728
869,000000	78,580973
868,000000	78,594909
867,000000	78,607570
866,000000	78,654069
865,000000	78,681642
864,000000	78,694260
863,000000	78,700756
862,000000	78,711702
861,000000	78,738956
860,000000	78,759564
859,000000	78,763890
858,000000	78,773294
857,000000	78,801299
856,000000	78,821746
855,000000	78,834840
854,000000	78,866096
853,000000	78,885582
852,000000	78,879373
851,000000	78,888376
850,000000	78,899883
849,000000	78,928022
848,000000	78,956253
847,000000	78,979402
846,000000	79,020043
845,000000	79,018440
844,000000	79,034421
843,000000	79,054399
842,000000	79,070668
841,000000	79,091122
840,000000	79,130799
839,000000	79,152075
838,000000	79,170386
837,000000	79,190516
836,000000	79,201771
835,000000	79,266048
834,000000	79,316571
833,000000	79,381170
832,000000	79,466855
831,000000	79,558929
830,000000	79,678786
829,000000	79,775126
828,000000	79,875638
827,000000	79,980460
826,000000	80,068136
825,000000	80,139170
824,000000	80,203067
823,000000	80,259451
822,000000	80,305451
821,000000	80,336643
820,000000	80,343089
819,000000	80,395033
818,000000	80,430734
817,000000	80,438888
816,000000	80,435949
815,000000	80,459421
814,000000	80,464881
813,000000	80,462557
812,000000	80,462538
811,000000	80,472878
810,000000	80,483337
809,000000	80,466605
808,000000	80,458267
807,000000	80,463710
806,000000	80,473976
805,000000	80,454367
804,000000	80,435715
803,000000	80,428723
802,000000	80,419796
801,000000	80,400149
800,000000	80,396092
799,000000	80,361141
798,000000	80,353534
797,000000	80,333011
796,000000	80,288206
795,000000	80,297498
794,000000	80,263636
793,000000	80,221027
792,000000	80,199797
791,000000	80,198755
790,000000	80,174308
789,000000	80,158996
788,000000	80,135985
787,000000	80,106106
786,000000	80,072598
785,000000	80,041102
784,000000	80,039355
783,000000	80,002916
782,000000	79,968401
781,000000	79,948113
780,000000	79,938469
779,000000	79,925114
778,000000	79,879864
777,000000	79,851668
776,000000	79,834831
775,000000	79,808986
774,000000	79,795013
773,000000	79,775041
772,000000	79,772937
771,000000	79,768047
770,000000	79,742641
769,000000	79,730258
768,000000	79,712151
767,000000	79,704291
766,000000	79,684199
765,000000	79,646884
764,000000	79,641571
763,000000	79,630790
762,000000	79,625926
761,000000	79,628984
760,000000	79,630115
759,000000	79,602623
758,000000	79,593258
757,000000	79,583712
756,000000	79,573778
755,000000	79,569155
754,000000	79,579867
753,000000	79,567675
752,000000	79,555590
751,000000	79,542363
750,000000	79,530122
749,000000	79,522852
748,000000	79,517726
747,000000	79,518210
746,000000	79,517784
745,000000	79,514723
744,000000	79,508536
743,000000	79,492547
742,000000	79,496196
741,000000	79,501657
740,000000	79,510865
739,000000	79,530222
738,000000	79,565226
737,000000	79,596227
736,000000	79,654094
735,000000	79,712559
734,000000	79,760479
733,000000	79,846699
732,000000	79,933431
731,000000	80,036246
730,000000	80,132218
729,000000	80,210019
728,000000	80,280386
727,000000	80,359336
726,000000	80,412693
725,000000	80,458816
724,000000	80,503573
723,000000	80,539036
722,000000	80,567157
721,000000	80,614395
720,000000	80,655308
719,000000	80,694904
718,000000	80,752485
717,000000	80,777203
716,000000	80,806112
715,000000	80,827910
714,000000	80,853712
713,000000	80,895313
712,000000	80,908577
711,000000	80,922526
710,000000	80,943376
709,000000	80,971114
708,000000	80,999663
707,000000	81,006007
706,000000	81,008373
705,000000	81,006305
704,000000	81,011109
703,000000	81,026413
702,000000	81,033961
701,000000	81,038281
700,000000	81,055408
699,000000	81,059513
698,000000	81,047171
697,000000	81,052303
696,000000	81,047165
695,000000	81,054509
694,000000	81,059900
693,000000	81,060944
692,000000	81,066933
691,000000	81,058756
690,000000	81,050122
689,000000	81,053427
688,000000	81,058711
687,000000	81,046344
686,000000	81,044017
685,000000	81,033414
684,000000	81,035671
683,000000	81,037897
682,000000	81,021283
681,000000	81,010113
680,000000	81,011441
679,000000	81,010732
678,000000	81,004253
677,000000	80,993489
676,000000	80,989259
675,000000	80,979561
674,000000	80,969733
673,000000	80,966328
672,000000	80,967833
671,000000	80,951520
670,000000	80,930850
669,000000	80,921820
668,000000	80,917333
667,000000	80,907725
666,000000	80,880990
665,000000	80,884060
664,000000	80,869280
663,000000	80,851145
662,000000	80,843936
661,000000	80,857784
660,000000	80,845809
659,000000	80,840064
658,000000	80,830330
657,000000	80,816535
656,000000	80,811967
655,000000	80,798976
654,000000	80,797555
653,000000	80,793922
652,000000	80,791649
651,000000	80,803103
650,000000	80,787862
649,000000	80,777984
648,000000	80,778380
647,000000	80,773800
646,000000	80,747543
645,000000	80,749626
644,000000	80,749058
643,000000	80,734018
642,000000	80,722571
641,000000	80,731104
640,000000	80,719871
639,000000	80,712285
638,000000	80,703320
637,000000	80,696552
636,000000	80,693681
635,000000	80,685988
634,000000	80,680832
633,000000	80,669920
632,000000	80,661089
631,000000	80,655443
630,000000	80,638627
629,000000	80,656594
628,000000	80,658700
627,000000	80,638801
626,000000	80,612433
625,000000	80,616250
624,000000	80,614683
623,000000	80,611131
622,000000	80,599353
621,000000	80,584688
620,000000	80,579932
619,000000	80,581238
618,000000	80,579330
617,000000	80,567111
616,000000	80,549249
615,000000	80,534597
614,000000	80,521704
613,000000	80,517466
612,000000	80,507776
611,000000	80,503988
610,000000	80,512155
609,000000	80,487686
608,000000	80,470506
607,000000	80,464064
606,000000	80,459730
605,000000	80,448424
604,000000	80,424859
603,000000	80,423613
602,000000	80,420431
601,000000	80,416524
600,000000	80,414549
599,000000	80,416397
598,000000	80,433680
597,000000	80,431529
596,000000	80,424072
595,000000	80,421354
594,000000	80,427120
593,000000	80,416079
592,000000	80,400644
591,000000	80,395801
590,000000	80,396368
589,000000	80,387743
588,000000	80,391196
587,000000	80,371055
586,000000	80,366416
585,000000	80,369962
584,000000	80,360264
583,000000	80,336731
582,000000	80,339168
581,000000	80,328307
580,000000	80,322754
579,000000	80,335854
578,000000	80,318821
577,000000	80,309192
576,000000	80,303846
575,000000	80,300827
574,000000	80,294470
573,000000	80,271042
572,000000	80,265679
571,000000	80,258300
570,000000	80,242570
569,000000	80,221508
568,000000	80,208846
567,000000	80,209811
566,000000	80,215240
565,000000	80,206917
564,000000	80,189403
563,000000	80,183507
562,000000	80,151436
561,000000	80,152422
560,000000	80,139603
559,000000	80,112590
558,000000	80,093284
557,000000	80,087787
556,000000	80,081014
555,000000	80,068328
554,000000	80,055763
553,000000	80,047903
552,000000	80,026069
551,000000	80,006594
550,000000	79,995003
549,000000	79,987626
548,000000	79,974509
547,000000	79,934182
546,000000	79,936049
545,000000	79,925699
544,000000	79,907563
543,000000	79,889443
542,000000	79,875186
541,000000	79,866891
540,000000	79,853435
539,000000	79,830345
538,000000	79,807778
537,000000	79,809797
536,000000	79,785095
535,000000	79,771226
534,000000	79,750234
533,000000	79,722717
532,000000	79,702878
531,000000	79,708784
530,000000	79,689354
529,000000	79,672213
528,000000	79,652332
527,000000	79,617336
526,000000	79,619410
525,000000	79,596929
524,000000	79,577043
523,000000	79,563831
522,000000	79,550497
521,000000	79,510812
520,000000	79,519350
519,000000	79,504908
518,000000	79,475243
517,000000	79,444788
516,000000	79,400773
515,000000	79,387493
514,000000	79,384900
513,000000	79,374644
512,000000	79,352380
511,000000	79,341847
510,000000	79,305252
509,000000	79,293191
508,000000	79,288141
507,000000	79,272332
506,000000	79,233358
505,000000	79,211754
504,000000	79,199625
503,000000	79,178152
502,000000	79,143688
501,000000	79,107561
500,000000	79,107330
499,000000	79,095687
498,000000	79,062719
497,000000	79,025475
496,000000	79,011186
495,000000	78,975358
494,000000	78,980141
493,000000	78,957551
492,000000	78,927501
491,000000	78,929405
490,000000	78,909606
489,000000	78,878418
488,000000	78,842637
487,000000	78,817537
486,000000	78,809214
485,000000	78,781125
484,000000	78,728208
483,000000	78,697109
482,000000	78,676991
481,000000	78,658126
480,000000	78,654719
479,000000	78,621994
478,000000	78,594936
477,000000	78,573919
476,000000	78,552448
475,000000	78,517481
474,000000	78,479993
473,000000	78,455362
472,000000	78,432648
471,000000	78,406497
470,000000	78,378962
469,000000	78,353316
468,000000	78,323191
467,000000	78,299695
466,000000	78,285349
465,000000	78,274298
464,000000	78,213371
463,000000	78,172982
462,000000	78,118239
461,000000	78,047338
460,000000	78,023045
459,000000	78,028143
458,000000	78,007133
457,000000	77,979290
456,000000	77,953988
455,000000	77,884847
454,000000	77,802880
453,000000	77,745397
452,000000	77,718626
451,000000	77,714333
450,000000	77,683995
449,000000	77,669486
448,000000	77,614742
447,000000	77,557330
446,000000	77,517021
445,000000	77,462643
444,000000	77,398170
443,000000	77,385073
442,000000	77,358249
441,000000	77,300806
440,000000	77,236700
439,000000	77,245743
438,000000	77,170256
437,000000	77,127481
436,000000	77,086645
435,000000	77,028581
434,000000	77,020386
433,000000	77,038682
432,000000	77,004163
431,000000	76,983701
430,000000	76,988296
429,000000	76,982205
428,000000	76,952746
427,000000	76,860096
426,000000	76,797116
425,000000	76,777615
424,000000	76,781770
423,000000	76,762942
422,000000	76,680778
421,000000	76,625822
420,000000	76,623831
419,000000	76,638887
418,000000	76,590693
417,000000	76,544006
416,000000	76,521011
415,000000	76,489804
414,000000	76,463655
413,000000	76,465239
412,000000	76,472981
411,000000	76,422524
410,000000	76,363178
409,000000	76,335380
408,000000	76,355787
407,000000	76,334501
406,000000	76,220416
405,000000	76,201960
404,000000	76,212296
403,000000	76,169238
402,000000	76,112454
401,000000	76,031976
400,000000	75,746226
399,000000	74,632279
398,000000	74,709670
397,000000	74,836833
396,000000	74,659472
395,000000	74,911991
394,000000	75,058211
393,000000	74,877472
392,000000	74,559070
391,000000	74,008842
390,000000	73,843095
389,000000	73,878765
388,000000	73,843587
387,000000	73,448898
386,000000	73,491930
385,000000	73,458477
384,000000	73,177527
383,000000	72,810319
382,000000	72,754339
381,000000	72,391887
380,000000	72,455117
379,000000	72,347720
378,000000	72,152217
377,000000	72,498397
376,000000	72,376354
375,000000	72,655852
374,000000	72,713289
373,000000	72,552415
372,000000	72,728707
371,000000	72,907106
370,000000	72,778035
369,000000	72,717037
368,000000	72,696592
367,000000	72,346856
366,000000	72,138910
365,000000	72,091593
364,000000	71,998288
363,000000	71,732829
362,000000	71,242551
361,000000	71,415108
360,000000	71,439027
359,000000	71,203053
358,000000	70,740582
357,000000	70,212904
356,000000	69,896727
355,000000	69,624117
354,000000	69,478951
353,000000	69,242213
352,000000	68,580182
351,000000	68,011030
350,000000	67,535666
349,000000	67,159414
348,000000	66,662447
347,000000	65,805167
346,000000	64,964526
345,000000	64,198290
344,000000	63,344515
343,000000	62,445766
342,000000	61,569133
341,000000	60,621499
340,000000	59,601292
339,000000	58,465412
338,000000	57,202057
337,000000	55,792028
336,000000	54,130640
335,000000	52,661124
334,000000	51,114682
333,000000	49,423592
332,000000	47,562798
331,000000	45,551876
330,000000	43,390095
329,000000	41,357193
328,000000	39,292828
327,000000	37,078083
326,000000	34,677515
325,000000	32,571457
324,000000	30,331395
323,000000	28,118846
322,000000	25,882978
321,000000	23,526245
320,000000	21,288880
319,000000	19,187351
318,000000	16,944435
317,000000	14,691483
316,000000	12,653582
315,000000	10,873264
314,000000	9,161834
313,000000	7,630695
312,000000	6,257525
311,000000	5,023000
310,000000	3,979134
309,000000	3,042106
308,000000	2,200492
307,000000	1,516635
306,000000	1,008689
305,000000	0,630384
304,000000	0,334403
303,000000	0,107259
302,000000	0,009097
301,000000	0,008797
300,000000	0,008750
299,000000	0,008432
298,000000	0,008316
297,000000	0,008283
296,000000	0,008243
295,000000	0,008185
294,000000	0,008598
293,000000	0,008545
292,000000	0,008495
291,000000	0,008408
290,000000	0,008240
289,000000	0,008367
288,000000	0,008521
287,000000	0,008552
286,000000	0,008413
285,000000	0,008216
284,000000	0,008487
283,000000	0,008369
282,000000	0,008000
281,000000	0,007815
280,000000	0,008041
279,000000	0,008011
278,000000	0,007563
277,000000	0,007475
276,000000	0,007506
275,000000	0,007363
274,000000	0,007166
273,000000	0,007402
272,000000	0,007297
271,000000	0,007052
270,000000	0,006802
269,000000	0,006487
268,000000	0,006450
267,000000	0,006131
266,000000	0,005866
265,000000	0,005721
264,000000	0,005589
263,000000	0,005630
262,000000	0,005225
261,000000	0,005059
260,000000	0,005005
259,000000	0,004756
258,000000	0,004545
257,000000	0,004438
256,000000	0,004310
255,000000	0,004232
254,000000	0,004256
253,000000	0,004323
252,000000	0,004106
251,000000	0,003960
250,000000	0,003930
249,000000	0,003905
248,000000	0,003609
247,000000	0,003578
246,000000	0,003524
245,000000	0,003448
244,000000	0,003382
243,000000	0,003386
242,000000	0,003246
241,000000	0,003248
240,000000	0,003312
239,000000	0,003335
238,000000	0,003214
237,000000	0,003285
236,000000	0,003248
235,000000	0,003191
234,000000	0,003181
233,000000	0,003245
232,000000	0,003119
231,000000	0,003265
230,000000	0,003365
229,000000	0,003377
228,000000	0,003366
227,000000	0,003322
226,000000	0,003370
225,000000	0,003443
224,000000	0,003560
223,000000	0,003697
222,000000	0,003553
221,000000	0,003724
220,000000	0,003895
219,000000	0,004026
218,000000	0,004101
217,000000	0,004059
216,000000	0,004351
215,000000	0,004492
214,000000	0,004580
213,000000	0,004723
212,000000	0,004971
211,000000	0,005114
210,000000	0,005177
209,000000	0,005284
208,000000	0,005556
207,000000	0,006061
206,000000	0,006322
205,000000	0,006791
204,000000	0,007063
203,000000	0,007161
202,000000	0,007495
201,000000	0,008528
200,000000	0,008957
