PE UV       SUBTECH     SPECTRUM    ASCII       PEDS        4.00        
   -1
interference.asc
24/07/02
10:58:10.00
24/07/02
10:58:10.00
student

200,000000
1
Lambda 365
365K7092207
  / Unknown

480
1
0,5
0
0
Both on
1
1
1
None
0
0
0
0
 
 
0
0
0
0
0
 
 
 
0
 
0
400
0
 
0
 
 
 
0
0
0
 
0
 
 
 
0
 
 
0
0
0
0
0
 
 
 
 
0
0


0
0
#HDR
-1
-1
#GR
nm
%T
1.0
0.0
1100,000000
-1,000000
901
8
48,088378
0,000469
#DATA
1100,000000	0,002975
1099,000000	0,002834
1098,000000	0,002696
1097,000000	0,002604
1096,000000	0,002558
1095,000000	0,002507
1094,000000	0,002593
1093,000000	0,002427
1092,000000	0,002312
1091,000000	0,002317
1090,000000	0,002326
1089,000000	0,002199
1088,000000	0,002135
1087,000000	0,002073
1086,000000	0,002014
1085,000000	0,001995
1084,000000	0,001973
1083,000000	0,001986
1082,000000	0,001900
1081,000000	0,001800
1080,000000	0,001848
1079,000000	0,001715
1078,000000	0,001721
1077,000000	0,001718
1076,000000	0,001689
1075,000000	0,001660
1074,000000	0,001580
1073,000000	0,001575
1072,000000	0,001519
1071,000000	0,001474
1070,000000	0,001513
1069,000000	0,001414
1068,000000	0,001348
1067,000000	0,001320
1066,000000	0,001315
1065,000000	0,001308
1064,000000	0,001228
1063,000000	0,001251
1062,000000	0,001205
1061,000000	0,001146
1060,000000	0,001145
1059,000000	0,001160
1058,000000	0,001104
1057,000000	0,001091
1056,000000	0,001073
1055,000000	0,001016
1054,000000	0,001019
1053,000000	0,000995
1052,000000	0,000948
1051,000000	0,000906
1050,000000	0,000891
1049,000000	0,000908
1048,000000	0,000913
1047,000000	0,000893
1046,000000	0,000863
1045,000000	0,000834
1044,000000	0,000808
1043,000000	0,000787
1042,000000	0,000792
1041,000000	0,000781
1040,000000	0,000750
1039,000000	0,000765
1038,000000	0,000750
1037,000000	0,000721
1036,000000	0,000719
1035,000000	0,000740
1034,000000	0,000723
1033,000000	0,000706
1032,000000	0,000673
1031,000000	0,000660
1030,000000	0,000663
1029,000000	0,000637
1028,000000	0,000659
1027,000000	0,000663
1026,000000	0,000651
1025,000000	0,000628
1024,000000	0,000601
1023,000000	0,000621
1022,000000	0,000624
1021,000000	0,000627
1020,000000	0,000623
1019,000000	0,000594
1018,000000	0,000587
1017,000000	0,000595
1016,000000	0,000591
1015,000000	0,000582
1014,000000	0,000586
1013,000000	0,000587
1012,000000	0,000585
1011,000000	0,000570
1010,000000	0,000560
1009,000000	0,000580
1008,000000	0,000588
1007,000000	0,000582
1006,000000	0,000581
1005,000000	0,000572
1004,000000	0,000540
1003,000000	0,000546
1002,000000	0,000561
1001,000000	0,000554
1000,000000	0,000551
999,000000	0,000576
998,000000	0,000575
997,000000	0,000571
996,000000	0,000570
995,000000	0,000559
994,000000	0,000537
993,000000	0,000567
992,000000	0,000540
991,000000	0,000546
990,000000	0,000561
989,000000	0,000560
988,000000	0,000569
987,000000	0,000551
986,000000	0,000557
985,000000	0,000555
984,000000	0,000532
983,000000	0,000547
982,000000	0,000543
981,000000	0,000548
980,000000	0,000544
979,000000	0,000528
978,000000	0,000542
977,000000	0,000559
976,000000	0,000545
975,000000	0,000534
974,000000	0,000539
973,000000	0,000533
972,000000	0,000566
971,000000	0,000557
970,000000	0,000556
969,000000	0,000579
968,000000	0,000589
967,000000	0,000584
966,000000	0,000574
965,000000	0,000573
964,000000	0,000578
963,000000	0,000562
962,000000	0,000555
961,000000	0,000563
960,000000	0,000569
959,000000	0,000571
958,000000	0,000581
957,000000	0,000580
956,000000	0,000592
955,000000	0,000595
954,000000	0,000595
953,000000	0,000615
952,000000	0,000601
951,000000	0,000601
950,000000	0,000607
949,000000	0,000614
948,000000	0,000621
947,000000	0,000639
946,000000	0,000608
945,000000	0,000609
944,000000	0,000625
943,000000	0,000608
942,000000	0,000631
941,000000	0,000620
940,000000	0,000624
939,000000	0,000638
938,000000	0,000644
937,000000	0,000673
936,000000	0,000666
935,000000	0,000668
934,000000	0,000668
933,000000	0,000654
932,000000	0,000689
931,000000	0,000693
930,000000	0,000678
929,000000	0,000676
928,000000	0,000702
927,000000	0,000688
926,000000	0,000676
925,000000	0,000698
924,000000	0,000715
923,000000	0,000706
922,000000	0,000737
921,000000	0,000697
920,000000	0,000718
919,000000	0,000751
918,000000	0,000745
917,000000	0,000718
916,000000	0,000718
915,000000	0,000730
914,000000	0,000749
913,000000	0,000762
912,000000	0,000744
911,000000	0,000786
910,000000	0,000771
909,000000	0,000765
908,000000	0,000786
907,000000	0,000755
906,000000	0,000809
905,000000	0,000793
904,000000	0,000786
903,000000	0,000814
902,000000	0,000821
901,000000	0,000805
900,000000	0,000805
899,000000	0,000820
898,000000	0,000835
897,000000	0,000822
896,000000	0,000889
895,000000	0,000912
894,000000	0,000906
893,000000	0,000882
892,000000	0,000853
891,000000	0,000902
890,000000	0,000926
889,000000	0,000925
888,000000	0,000918
887,000000	0,000937
886,000000	0,000916
885,000000	0,000947
884,000000	0,000953
883,000000	0,000946
882,000000	0,000982
881,000000	0,001010
880,000000	0,001003
879,000000	0,001020
878,000000	0,001035
877,000000	0,001004
876,000000	0,001032
875,000000	0,001012
874,000000	0,001033
873,000000	0,001073
872,000000	0,001082
871,000000	0,001105
870,000000	0,001112
869,000000	0,001112
868,000000	0,001101
867,000000	0,001082
866,000000	0,001106
865,000000	0,001127
864,000000	0,001112
863,000000	0,001094
862,000000	0,001115
861,000000	0,001196
860,000000	0,001156
859,000000	0,001178
858,000000	0,001208
857,000000	0,001187
856,000000	0,001159
855,000000	0,001219
854,000000	0,001206
853,000000	0,001181
852,000000	0,001190
851,000000	0,001172
850,000000	0,001211
849,000000	0,001221
848,000000	0,001232
847,000000	0,001255
846,000000	0,001236
845,000000	0,001292
844,000000	0,001299
843,000000	0,001263
842,000000	0,001222
841,000000	0,001254
840,000000	0,001262
839,000000	0,001281
838,000000	0,001278
837,000000	0,001273
836,000000	0,001344
835,000000	0,001297
834,000000	0,001276
833,000000	0,001303
832,000000	0,001347
831,000000	0,001326
830,000000	0,001350
829,000000	0,001322
828,000000	0,001292
827,000000	0,001294
826,000000	0,001338
825,000000	0,001264
824,000000	0,001249
823,000000	0,001282
822,000000	0,001308
821,000000	0,001262
820,000000	0,001275
819,000000	0,001308
818,000000	0,001292
817,000000	0,001256
816,000000	0,001264
815,000000	0,001255
814,000000	0,001267
813,000000	0,001299
812,000000	0,001317
811,000000	0,001287
810,000000	0,001300
809,000000	0,001269
808,000000	0,001244
807,000000	0,001250
806,000000	0,001289
805,000000	0,001259
804,000000	0,001230
803,000000	0,001230
802,000000	0,001220
801,000000	0,001185
800,000000	0,001261
799,000000	0,001228
798,000000	0,001218
797,000000	0,001204
796,000000	0,001169
795,000000	0,001167
794,000000	0,001199
793,000000	0,001170
792,000000	0,001179
791,000000	0,001238
790,000000	0,001228
789,000000	0,001219
788,000000	0,001210
787,000000	0,001207
786,000000	0,001193
785,000000	0,001140
784,000000	0,001176
783,000000	0,001147
782,000000	0,001127
781,000000	0,001137
780,000000	0,001163
779,000000	0,001156
778,000000	0,001137
777,000000	0,001115
776,000000	0,001091
775,000000	0,001070
774,000000	0,001111
773,000000	0,001074
772,000000	0,001047
771,000000	0,001046
770,000000	0,001067
769,000000	0,001087
768,000000	0,001068
767,000000	0,001076
766,000000	0,001084
765,000000	0,001068
764,000000	0,001043
763,000000	0,001033
762,000000	0,001041
761,000000	0,001048
760,000000	0,001044
759,000000	0,001033
758,000000	0,001077
757,000000	0,001048
756,000000	0,001020
755,000000	0,001030
754,000000	0,001074
753,000000	0,001018
752,000000	0,001000
751,000000	0,000996
750,000000	0,001004
749,000000	0,001032
748,000000	0,001018
747,000000	0,001039
746,000000	0,001028
745,000000	0,001004
744,000000	0,001008
743,000000	0,000986
742,000000	0,000971
741,000000	0,000960
740,000000	0,000975
739,000000	0,001017
738,000000	0,000989
737,000000	0,000983
736,000000	0,000976
735,000000	0,000959
734,000000	0,000951
733,000000	0,001018
732,000000	0,000994
731,000000	0,000967
730,000000	0,000959
729,000000	0,000966
728,000000	0,000952
727,000000	0,000986
726,000000	0,000986
725,000000	0,000986
724,000000	0,000981
723,000000	0,000929
722,000000	0,000920
721,000000	0,000937
720,000000	0,000933
719,000000	0,000914
718,000000	0,000916
717,000000	0,000938
716,000000	0,000961
715,000000	0,000962
714,000000	0,000954
713,000000	0,000953
712,000000	0,000899
711,000000	0,000901
710,000000	0,000920
709,000000	0,000944
708,000000	0,000964
707,000000	0,000948
706,000000	0,000905
705,000000	0,000909
704,000000	0,000926
703,000000	0,000930
702,000000	0,000947
701,000000	0,000918
700,000000	0,000907
699,000000	0,000901
698,000000	0,000892
697,000000	0,000896
696,000000	0,000915
695,000000	0,000921
694,000000	0,000910
693,000000	0,000898
692,000000	0,000915
691,000000	0,000855
690,000000	0,000877
689,000000	0,000896
688,000000	0,000880
687,000000	0,000842
686,000000	0,000873
685,000000	0,000841
684,000000	0,000827
683,000000	0,000827
682,000000	0,000809
681,000000	0,000785
680,000000	0,000776
679,000000	0,000773
678,000000	0,000764
677,000000	0,000741
676,000000	0,000714
675,000000	0,000666
674,000000	0,000656
673,000000	0,000655
672,000000	0,000634
671,000000	0,000580
670,000000	0,000557
669,000000	0,000545
668,000000	0,000524
667,000000	0,000493
666,000000	0,000479
665,000000	0,000469
664,000000	0,000487
663,000000	0,000510
662,000000	0,000534
661,000000	0,000588
660,000000	0,000645
659,000000	0,000671
658,000000	0,000714
657,000000	0,000782
656,000000	0,000822
655,000000	0,000874
654,000000	0,000878
653,000000	0,000885
652,000000	0,000894
651,000000	0,000874
650,000000	0,000896
649,000000	0,000912
648,000000	0,000900
647,000000	0,000878
646,000000	0,000874
645,000000	0,000867
644,000000	0,000908
643,000000	0,000911
642,000000	0,000899
641,000000	0,000913
640,000000	0,000893
639,000000	0,000902
638,000000	0,000931
637,000000	0,000939
636,000000	0,000907
635,000000	0,000903
634,000000	0,013439
633,000000	0,012861
632,000000	0,012114
631,000000	0,019367
630,000000	0,026664
629,000000	0,034017
628,000000	0,041410
627,000000	0,052399
626,000000	0,063559
625,000000	0,063887
624,000000	0,078816
623,000000	0,093831
622,000000	0,112870
621,000000	0,133361
620,000000	0,149471
619,000000	0,179867
618,000000	0,210516
617,000000	0,245646
616,000000	0,286738
615,000000	0,334660
614,000000	0,396674
613,000000	0,459192
612,000000	0,540993
611,000000	0,643945
610,000000	0,766571
609,000000	0,916946
608,000000	1,110364
607,000000	1,346194
606,000000	1,632393
605,000000	1,984831
604,000000	2,443666
603,000000	3,064124
602,000000	3,861525
601,000000	4,886679
600,000000	6,215507
599,000000	7,967205
598,000000	10,371613
597,000000	13,369539
596,000000	16,977090
595,000000	21,147191
594,000000	25,755800
593,000000	30,279095
592,000000	34,137618
591,000000	37,058087
590,000000	38,946532
589,000000	39,866891
588,000000	39,993198
587,000000	39,853827
586,000000	39,757588
585,000000	39,893176
584,000000	40,396377
583,000000	41,407955
582,000000	42,957139
581,000000	44,725452
580,000000	46,474974
579,000000	47,863386
578,000000	48,088378
577,000000	46,223990
576,000000	42,508273
575,000000	37,367368
574,000000	31,395378
573,000000	25,347719
572,000000	20,149320
571,000000	15,825582
570,000000	12,322310
569,000000	9,561564
568,000000	7,456622
567,000000	5,931180
566,000000	4,728670
565,000000	3,768529
564,000000	3,008354
563,000000	2,433388
562,000000	2,000313
561,000000	1,649337
560,000000	1,370610
559,000000	1,141048
558,000000	0,933952
557,000000	0,779644
556,000000	0,649013
555,000000	0,533869
554,000000	0,436484
553,000000	0,359850
552,000000	0,300240
551,000000	0,240025
550,000000	0,189985
549,000000	0,152165
548,000000	0,120501
547,000000	0,079858
546,000000	0,048383
545,000000	0,031742
544,000000	0,017120
543,000000	0,001333
542,000000	0,001366
541,000000	0,001443
540,000000	0,001398
539,000000	0,001406
538,000000	0,001468
537,000000	0,001398
536,000000	0,001411
535,000000	0,001456
534,000000	0,001461
533,000000	0,001452
532,000000	0,001510
531,000000	0,001506
530,000000	0,001489
529,000000	0,001478
528,000000	0,001499
527,000000	0,001565
526,000000	0,001513
525,000000	0,001516
524,000000	0,001518
523,000000	0,001525
522,000000	0,001553
521,000000	0,001571
520,000000	0,001613
519,000000	0,001648
518,000000	0,001673
517,000000	0,001686
516,000000	0,001662
515,000000	0,001655
514,000000	0,001697
513,000000	0,001754
512,000000	0,001781
511,000000	0,001724
510,000000	0,001698
509,000000	0,001756
508,000000	0,001771
507,000000	0,001720
506,000000	0,001726
505,000000	0,001801
504,000000	0,001788
503,000000	0,001815
502,000000	0,001874
501,000000	0,001834
500,000000	0,001792
499,000000	0,001860
498,000000	0,001917
497,000000	0,001915
496,000000	0,001858
495,000000	0,001838
494,000000	0,001902
493,000000	0,001934
492,000000	0,001944
491,000000	0,001979
490,000000	0,001968
489,000000	0,001891
488,000000	0,001917
487,000000	0,001970
486,000000	0,001941
485,000000	0,001832
484,000000	0,001803
483,000000	0,001787
482,000000	0,001782
481,000000	0,001784
480,000000	0,001763
479,000000	0,001726
478,000000	0,001754
477,000000	0,001774
476,000000	0,001749
475,000000	0,001720
474,000000	0,001769
473,000000	0,001739
472,000000	0,001757
471,000000	0,001830
470,000000	0,001830
469,000000	0,001962
468,000000	0,002057
467,000000	0,002167
466,000000	0,002276
465,000000	0,002294
464,000000	0,002335
463,000000	0,002510
462,000000	0,002614
461,000000	0,002597
460,000000	0,002701
459,000000	0,002874
458,000000	0,002913
457,000000	0,002955
456,000000	0,003069
455,000000	0,002990
454,000000	0,003064
453,000000	0,003232
452,000000	0,003325
451,000000	0,003227
450,000000	0,003282
449,000000	0,003274
448,000000	0,003328
447,000000	0,003415
446,000000	0,003510
445,000000	0,003642
444,000000	0,003659
443,000000	0,003768
442,000000	0,003841
441,000000	0,003857
440,000000	0,003870
439,000000	0,003956
438,000000	0,004080
437,000000	0,004021
436,000000	0,003959
435,000000	0,004045
434,000000	0,004196
433,000000	0,004374
432,000000	0,004464
431,000000	0,004485
430,000000	0,004454
429,000000	0,004388
428,000000	0,004370
427,000000	0,004533
426,000000	0,004545
425,000000	0,004536
424,000000	0,004652
423,000000	0,004724
422,000000	0,004974
421,000000	0,005060
420,000000	0,004962
419,000000	0,004799
418,000000	0,004778
417,000000	0,004903
416,000000	0,005054
415,000000	0,005166
414,000000	0,005181
413,000000	0,005081
412,000000	0,005050
411,000000	0,005041
410,000000	0,005101
409,000000	0,005301
408,000000	0,005652
407,000000	0,005863
406,000000	0,005845
405,000000	0,006143
404,000000	0,006434
403,000000	0,006464
402,000000	0,006776
401,000000	0,007151
400,000000	0,013035
399,000000	0,039282
398,000000	0,040531
397,000000	0,040974
396,000000	0,041750
395,000000	0,041231
394,000000	0,039233
393,000000	0,037416
392,000000	0,039669
391,000000	0,041992
390,000000	0,042336
389,000000	0,040873
388,000000	0,039123
387,000000	0,039175
386,000000	0,039490
385,000000	0,038991
384,000000	0,038427
383,000000	0,038260
382,000000	0,038680
381,000000	0,036484
380,000000	0,035168
379,000000	0,035935
378,000000	0,037406
377,000000	0,035947
376,000000	0,036355
375,000000	0,036148
374,000000	0,036776
373,000000	0,037669
372,000000	0,036553
371,000000	0,037015
370,000000	0,036019
369,000000	0,034780
368,000000	0,034181
367,000000	0,034804
366,000000	0,034783
365,000000	0,034061
364,000000	0,033032
363,000000	0,031864
362,000000	0,030511
361,000000	0,031268
360,000000	0,028687
359,000000	0,026747
358,000000	0,026230
357,000000	0,026192
356,000000	0,025622
355,000000	0,024979
354,000000	0,024711
353,000000	0,024223
352,000000	0,022564
351,000000	0,022487
350,000000	0,022629
349,000000	0,022526
348,000000	0,022232
347,000000	0,021964
346,000000	0,021271
345,000000	0,020065
344,000000	0,019819
343,000000	0,020123
342,000000	0,020144
341,000000	0,019870
340,000000	0,019145
339,000000	0,018593
338,000000	0,018339
337,000000	0,018161
336,000000	0,017097
335,000000	0,017233
334,000000	0,017010
333,000000	0,016628
332,000000	0,016265
331,000000	0,015718
330,000000	0,015343
329,000000	0,015008
328,000000	0,014801
327,000000	0,014762
326,000000	0,014856
325,000000	0,014066
324,000000	0,013441
323,000000	0,013382
322,000000	0,013542
321,000000	0,013279
320,000000	0,013144
319,000000	0,012622
318,000000	0,011997
317,000000	0,011620
316,000000	0,011696
315,000000	0,011761
314,000000	0,011342
313,000000	0,010994
312,000000	0,010850
311,000000	0,010800
310,000000	0,010322
309,000000	0,010360
308,000000	0,009982
307,000000	0,009532
306,000000	0,009242
305,000000	0,009072
304,000000	0,009351
303,000000	0,009002
302,000000	0,008716
301,000000	0,008628
300,000000	0,008451
299,000000	0,008597
298,000000	0,008535
297,000000	0,008561
296,000000	0,008682
295,000000	0,008758
294,000000	0,008557
293,000000	0,008747
292,000000	0,008831
291,000000	0,008717
290,000000	0,008474
289,000000	0,008370
288,000000	0,008431
287,000000	0,008440
286,000000	0,008296
285,000000	0,008090
284,000000	0,008423
283,000000	0,008133
282,000000	0,008026
281,000000	0,007890
280,000000	0,007560
279,000000	0,007570
278,000000	0,007842
277,000000	0,007753
276,000000	0,007602
275,000000	0,007614
274,000000	0,007310
273,000000	0,006964
272,000000	0,006817
271,000000	0,006659
270,000000	0,006443
269,000000	0,006389
268,000000	0,006253
267,000000	0,006135
266,000000	0,006055
265,000000	0,005866
264,000000	0,005391
263,000000	0,005488
262,000000	0,005364
261,000000	0,005103
260,000000	0,004878
259,000000	0,004830
258,000000	0,004815
257,000000	0,004718
256,000000	0,004618
255,000000	0,004455
254,000000	0,004215
253,000000	0,004054
252,000000	0,003975
251,000000	0,003982
250,000000	0,003974
249,000000	0,003863
248,000000	0,003588
247,000000	0,003580
246,000000	0,003511
245,000000	0,003416
244,000000	0,003361
243,000000	0,003432
242,000000	0,003217
241,000000	0,003271
240,000000	0,003296
239,000000	0,003242
238,000000	0,003297
237,000000	0,003298
236,000000	0,003247
235,000000	0,003257
234,000000	0,003257
233,000000	0,003098
232,000000	0,003145
231,000000	0,003302
230,000000	0,003415
229,000000	0,003455
228,000000	0,003431
227,000000	0,003297
226,000000	0,003381
225,000000	0,003442
224,000000	0,003458
223,000000	0,003469
222,000000	0,003550
221,000000	0,003788
220,000000	0,003914
219,000000	0,004013
218,000000	0,004117
217,000000	0,003981
216,000000	0,004307
215,000000	0,004437
214,000000	0,004543
213,000000	0,004689
212,000000	0,004657
211,000000	0,004937
210,000000	0,005158
209,000000	0,005307
208,000000	0,005467
207,000000	0,005807
206,000000	0,006261
205,000000	0,006732
204,000000	0,007153
203,000000	0,007539
202,000000	0,008065
201,000000	0,008979
200,000000	0,009318
