PE UV       SUBTECH     SPECTRUM    ASCII       PEDS        4.00        
   -1
interference45.asc
24/07/02
12:09:22.00
24/07/02
12:09:22.00
student

200,000000
1
Lambda 365
365K7092207
  / Unknown

480
1
0,5
0
0
Both on
1
1
1
None
0
0
0
0
 
 
0
0
0
0
0
 
 
 
0
 
0
400
0
 
0
 
 
 
0
0
0
 
0
 
 
 
0
 
 
0
0
0
0
0
 
 
 
 
0
0


0
0
#HDR
-1
-1
#GR
nm
%T
1.0
0.0
1100,000000
-1,000000
901
8
20,473803
0,000477
#DATA
1100,000000	0,002987
1099,000000	0,002939
1098,000000	0,002871
1097,000000	0,002739
1096,000000	0,002602
1095,000000	0,002653
1094,000000	0,039111
1093,000000	0,046885
1092,000000	0,036412
1091,000000	0,027126
1090,000000	0,044358
1089,000000	0,077547
1088,000000	0,096198
1087,000000	0,110243
1086,000000	0,128129
1085,000000	0,155813
1084,000000	0,167583
1083,000000	0,190519
1082,000000	0,215300
1081,000000	0,243192
1080,000000	0,280315
1079,000000	0,328644
1078,000000	0,363809
1077,000000	0,409568
1076,000000	0,460082
1075,000000	0,502813
1074,000000	0,577606
1073,000000	0,649012
1072,000000	0,737690
1071,000000	0,836496
1070,000000	0,935118
1069,000000	1,068789
1068,000000	1,212648
1067,000000	1,382434
1066,000000	1,569994
1065,000000	1,767462
1064,000000	2,005907
1063,000000	2,280604
1062,000000	2,583088
1061,000000	2,918205
1060,000000	3,291039
1059,000000	3,710620
1058,000000	4,169287
1057,000000	4,658394
1056,000000	5,183262
1055,000000	5,740102
1054,000000	6,300069
1053,000000	6,876846
1052,000000	7,458596
1051,000000	8,031589
1050,000000	8,591068
1049,000000	9,157140
1048,000000	9,690500
1047,000000	10,213668
1046,000000	10,715506
1045,000000	11,188940
1044,000000	11,637798
1043,000000	12,041393
1042,000000	12,428617
1041,000000	12,787067
1040,000000	13,111303
1039,000000	13,408314
1038,000000	13,690763
1037,000000	13,967035
1036,000000	14,242859
1035,000000	14,527572
1034,000000	14,836028
1033,000000	15,204995
1032,000000	15,612979
1031,000000	16,053419
1030,000000	16,535568
1029,000000	17,083551
1028,000000	17,655530
1027,000000	18,231560
1026,000000	18,780154
1025,000000	19,281661
1024,000000	19,726415
1023,000000	20,056423
1022,000000	20,296398
1021,000000	20,436266
1020,000000	20,473803
1019,000000	20,414241
1018,000000	20,240230
1017,000000	19,974799
1016,000000	19,619259
1015,000000	19,169944
1014,000000	18,624963
1013,000000	17,977449
1012,000000	17,218737
1011,000000	16,376005
1010,000000	15,455039
1009,000000	14,459319
1008,000000	13,405366
1007,000000	12,324150
1006,000000	11,252503
1005,000000	10,227797
1004,000000	9,281615
1003,000000	8,413827
1002,000000	7,681178
1001,000000	7,062230
1000,000000	6,548394
999,000000	6,132436
998,000000	5,830969
997,000000	5,612380
996,000000	5,460011
995,000000	5,359361
994,000000	5,292887
993,000000	5,241980
992,000000	5,202380
991,000000	5,162494
990,000000	5,114923
989,000000	5,055608
988,000000	4,987330
987,000000	4,907617
986,000000	4,820856
985,000000	4,728773
984,000000	4,630974
983,000000	4,521076
982,000000	4,414971
981,000000	4,298198
980,000000	4,179788
979,000000	4,063546
978,000000	3,937919
977,000000	3,802468
976,000000	3,659402
975,000000	3,506158
974,000000	3,338652
973,000000	3,150293
972,000000	2,948833
971,000000	2,732259
970,000000	2,497843
969,000000	2,244440
968,000000	1,971373
967,000000	1,702879
966,000000	1,448761
965,000000	1,215650
964,000000	1,009281
963,000000	0,836818
962,000000	0,698420
961,000000	0,585959
960,000000	0,491112
959,000000	0,411326
958,000000	0,349547
957,000000	0,297993
956,000000	0,258854
955,000000	0,225713
954,000000	0,198601
953,000000	0,181040
952,000000	0,158915
951,000000	0,136922
950,000000	0,119311
949,000000	0,106993
948,000000	0,098253
947,000000	0,089274
946,000000	0,080325
945,000000	0,071650
944,000000	0,064409
943,000000	0,059850
942,000000	0,054714
941,000000	0,046051
940,000000	0,039465
939,000000	0,036532
938,000000	0,036833
937,000000	0,036977
936,000000	0,032959
935,000000	0,028193
934,000000	0,021488
933,000000	0,012652
932,000000	0,012727
931,000000	0,017258
930,000000	0,016004
929,000000	0,012898
928,000000	0,011604
927,000000	0,001739
926,000000	0,000704
925,000000	0,000702
924,000000	0,000694
923,000000	0,000696
922,000000	0,000720
921,000000	0,000717
920,000000	0,000720
919,000000	0,000724
918,000000	0,000723
917,000000	0,000723
916,000000	0,000747
915,000000	0,000753
914,000000	0,000757
913,000000	0,000770
912,000000	0,000793
911,000000	0,000763
910,000000	0,000780
909,000000	0,000805
908,000000	0,000807
907,000000	0,000791
906,000000	0,000802
905,000000	0,000810
904,000000	0,000808
903,000000	0,000808
902,000000	0,000843
901,000000	0,000842
900,000000	0,000847
899,000000	0,000840
898,000000	0,000832
897,000000	0,000867
896,000000	0,000893
895,000000	0,000889
894,000000	0,000880
893,000000	0,000889
892,000000	0,000932
891,000000	0,000884
890,000000	0,000882
889,000000	0,000906
888,000000	0,000930
887,000000	0,000931
886,000000	0,000949
885,000000	0,000975
884,000000	0,000970
883,000000	0,000963
882,000000	0,001009
881,000000	0,000976
880,000000	0,000989
879,000000	0,001013
878,000000	0,001027
877,000000	0,001024
876,000000	0,001061
875,000000	0,001060
874,000000	0,001039
873,000000	0,001041
872,000000	0,001092
871,000000	0,001045
870,000000	0,001080
869,000000	0,001089
868,000000	0,001085
867,000000	0,001104
866,000000	0,001115
865,000000	0,001114
864,000000	0,001117
863,000000	0,001126
862,000000	0,001135
861,000000	0,001128
860,000000	0,001115
859,000000	0,001142
858,000000	0,001174
857,000000	0,001178
856,000000	0,001155
855,000000	0,001156
854,000000	0,001199
853,000000	0,001211
852,000000	0,001173
851,000000	0,001225
850,000000	0,001189
849,000000	0,001184
848,000000	0,001229
847,000000	0,001284
846,000000	0,001220
845,000000	0,001233
844,000000	0,001258
843,000000	0,001278
842,000000	0,001295
841,000000	0,001325
840,000000	0,001314
839,000000	0,001315
838,000000	0,001323
837,000000	0,001314
836,000000	0,001241
835,000000	0,001257
834,000000	0,001302
833,000000	0,001294
832,000000	0,001254
831,000000	0,001308
830,000000	0,001273
829,000000	0,001322
828,000000	0,001331
827,000000	0,001304
826,000000	0,001342
825,000000	0,001284
824,000000	0,001283
823,000000	0,001284
822,000000	0,001278
821,000000	0,001288
820,000000	0,001334
819,000000	0,001308
818,000000	0,001284
817,000000	0,001280
816,000000	0,001287
815,000000	0,001298
814,000000	0,001272
813,000000	0,001270
812,000000	0,001289
811,000000	0,001303
810,000000	0,001258
809,000000	0,001235
808,000000	0,001257
807,000000	0,001288
806,000000	0,001286
805,000000	0,001293
804,000000	0,001263
803,000000	0,001231
802,000000	0,001235
801,000000	0,001279
800,000000	0,001258
799,000000	0,001233
798,000000	0,001198
797,000000	0,001185
796,000000	0,001201
795,000000	0,001182
794,000000	0,001222
793,000000	0,001230
792,000000	0,001199
791,000000	0,001150
790,000000	0,001133
789,000000	0,001178
788,000000	0,001155
787,000000	0,001158
786,000000	0,001181
785,000000	0,001135
784,000000	0,001100
783,000000	0,001145
782,000000	0,001179
781,000000	0,001182
780,000000	0,001172
779,000000	0,001106
778,000000	0,001095
777,000000	0,001088
776,000000	0,001083
775,000000	0,001091
774,000000	0,001122
773,000000	0,001139
772,000000	0,001133
771,000000	0,001125
770,000000	0,001122
769,000000	0,001039
768,000000	0,001099
767,000000	0,001109
766,000000	0,001097
765,000000	0,001101
764,000000	0,001104
763,000000	0,001055
762,000000	0,001032
761,000000	0,001028
760,000000	0,001026
759,000000	0,001005
758,000000	0,001023
757,000000	0,001024
756,000000	0,001012
755,000000	0,001013
754,000000	0,001073
753,000000	0,001046
752,000000	0,001056
751,000000	0,001067
750,000000	0,001058
749,000000	0,001019
748,000000	0,001034
747,000000	0,001034
746,000000	0,001036
745,000000	0,001035
744,000000	0,001017
743,000000	0,000993
742,000000	0,001005
741,000000	0,001018
740,000000	0,001024
739,000000	0,001013
738,000000	0,000954
737,000000	0,000983
736,000000	0,000982
735,000000	0,000973
734,000000	0,000982
733,000000	0,000992
732,000000	0,000963
731,000000	0,000960
730,000000	0,000967
729,000000	0,000967
728,000000	0,000956
727,000000	0,000944
726,000000	0,000937
725,000000	0,000928
724,000000	0,000916
723,000000	0,000913
722,000000	0,000948
721,000000	0,000977
720,000000	0,000969
719,000000	0,000941
718,000000	0,000934
717,000000	0,000905
716,000000	0,000946
715,000000	0,000962
714,000000	0,000960
713,000000	0,000974
712,000000	0,000941
711,000000	0,000938
710,000000	0,000935
709,000000	0,000942
708,000000	0,000964
707,000000	0,000957
706,000000	0,000954
705,000000	0,000954
704,000000	0,000937
703,000000	0,000902
702,000000	0,000892
701,000000	0,000882
700,000000	0,000879
699,000000	0,000890
698,000000	0,000913
697,000000	0,000931
696,000000	0,000921
695,000000	0,000879
694,000000	0,000881
693,000000	0,000921
692,000000	0,000913
691,000000	0,000868
690,000000	0,000870
689,000000	0,000883
688,000000	0,000882
687,000000	0,000858
686,000000	0,000823
685,000000	0,000829
684,000000	0,000842
683,000000	0,000840
682,000000	0,000814
681,000000	0,000786
680,000000	0,000783
679,000000	0,000756
678,000000	0,000736
677,000000	0,000747
676,000000	0,000718
675,000000	0,000693
674,000000	0,000656
673,000000	0,000633
672,000000	0,000630
671,000000	0,000592
670,000000	0,000575
669,000000	0,000550
668,000000	0,000521
667,000000	0,000497
666,000000	0,000487
665,000000	0,000477
664,000000	0,000481
663,000000	0,000507
662,000000	0,000551
661,000000	0,000595
660,000000	0,000632
659,000000	0,000691
658,000000	0,000740
657,000000	0,000779
656,000000	0,000854
655,000000	0,000850
654,000000	0,000870
653,000000	0,000891
652,000000	0,000897
651,000000	0,000884
650,000000	0,000892
649,000000	0,000888
648,000000	0,000876
647,000000	0,000884
646,000000	0,000938
645,000000	0,000939
644,000000	0,000903
643,000000	0,000889
642,000000	0,000892
641,000000	0,000895
640,000000	0,000925
639,000000	0,000922
638,000000	0,000936
637,000000	0,000943
636,000000	0,000921
635,000000	0,000889
634,000000	0,000928
633,000000	0,000934
632,000000	0,000931
631,000000	0,000937
630,000000	0,000932
629,000000	0,000911
628,000000	0,000907
627,000000	0,000917
626,000000	0,000934
625,000000	0,000948
624,000000	0,000945
623,000000	0,000950
622,000000	0,000976
621,000000	0,000999
620,000000	0,000979
619,000000	0,000983
618,000000	0,000974
617,000000	0,000985
616,000000	0,001010
615,000000	0,001027
614,000000	0,000975
613,000000	0,000965
612,000000	0,000977
611,000000	0,000986
610,000000	0,000986
609,000000	0,001045
608,000000	0,001000
607,000000	0,001012
606,000000	0,001046
605,000000	0,001056
604,000000	0,001049
603,000000	0,001035
602,000000	0,001026
601,000000	0,001038
600,000000	0,001059
599,000000	0,001048
598,000000	0,001062
597,000000	0,001084
596,000000	0,001094
595,000000	0,001094
594,000000	0,001102
593,000000	0,001064
592,000000	0,001048
591,000000	0,001051
590,000000	0,001075
589,000000	0,001120
588,000000	0,001115
587,000000	0,001138
586,000000	0,001142
585,000000	0,001118
584,000000	0,001082
583,000000	0,001123
582,000000	0,001144
581,000000	0,001156
580,000000	0,004264
579,000000	0,011027
578,000000	0,011095
577,000000	0,011122
576,000000	0,011164
575,000000	0,015154
574,000000	0,022542
573,000000	0,022666
572,000000	0,031601
571,000000	0,041038
570,000000	0,041675
569,000000	0,036995
568,000000	0,046580
567,000000	0,046806
566,000000	0,068683
565,000000	0,087764
564,000000	0,097857
563,000000	0,107662
562,000000	0,108258
561,000000	0,116723
560,000000	0,127210
559,000000	0,144189
558,000000	0,173125
557,000000	0,184101
556,000000	0,212180
555,000000	0,237625
554,000000	0,259389
553,000000	0,281404
552,000000	0,303633
551,000000	0,326202
550,000000	0,364476
549,000000	0,409301
548,000000	0,449469
547,000000	0,472972
546,000000	0,516175
545,000000	0,568730
544,000000	0,615733
543,000000	0,649402
542,000000	0,675106
541,000000	0,701120
540,000000	0,711567
539,000000	0,705528
538,000000	0,685571
537,000000	0,656677
536,000000	0,583239
535,000000	0,500389
534,000000	0,413679
533,000000	0,325706
532,000000	0,236613
531,000000	0,146106
530,000000	0,082536
529,000000	0,032086
528,000000	0,001561
527,000000	0,001498
526,000000	0,001547
525,000000	0,001549
524,000000	0,001529
523,000000	0,001527
522,000000	0,001574
521,000000	0,001652
520,000000	0,001660
519,000000	0,001630
518,000000	0,001635
517,000000	0,001700
516,000000	0,001672
515,000000	0,001693
514,000000	0,001691
513,000000	0,001704
512,000000	0,001730
511,000000	0,001666
510,000000	0,001729
509,000000	0,001784
508,000000	0,001776
507,000000	0,001737
506,000000	0,001805
505,000000	0,001750
504,000000	0,001731
503,000000	0,001738
502,000000	0,001752
501,000000	0,001753
500,000000	0,001811
499,000000	0,001870
498,000000	0,001887
497,000000	0,001886
496,000000	0,001917
495,000000	0,001920
494,000000	0,001955
493,000000	0,001948
492,000000	0,001913
491,000000	0,001896
490,000000	0,001930
489,000000	0,001923
488,000000	0,001955
487,000000	0,001955
486,000000	0,001877
485,000000	0,001915
484,000000	0,001828
483,000000	0,001849
482,000000	0,001867
481,000000	0,001796
480,000000	0,001728
479,000000	0,001751
478,000000	0,001766
477,000000	0,001772
476,000000	0,001781
475,000000	0,001823
474,000000	0,001833
473,000000	0,001848
472,000000	0,001839
471,000000	0,001826
470,000000	0,001889
469,000000	0,001975
468,000000	0,001992
467,000000	0,002034
466,000000	0,002152
465,000000	0,002360
464,000000	0,002439
463,000000	0,002513
462,000000	0,002609
461,000000	0,002723
460,000000	0,002797
459,000000	0,002881
458,000000	0,002845
457,000000	0,002886
456,000000	0,003106
455,000000	0,003199
454,000000	0,003126
453,000000	0,003188
452,000000	0,003353
451,000000	0,003497
450,000000	0,003422
449,000000	0,003426
448,000000	0,003383
447,000000	0,003404
446,000000	0,003520
445,000000	0,003587
444,000000	0,003715
443,000000	0,003683
442,000000	0,003730
441,000000	0,003795
440,000000	0,003699
439,000000	0,003722
438,000000	0,003881
437,000000	0,003896
436,000000	0,003901
435,000000	0,004027
434,000000	0,004202
433,000000	0,004325
432,000000	0,004365
431,000000	0,004337
430,000000	0,004335
429,000000	0,004468
428,000000	0,004465
427,000000	0,004525
426,000000	0,004555
425,000000	0,004600
424,000000	0,004722
423,000000	0,004921
422,000000	0,004824
421,000000	0,004912
420,000000	0,004901
419,000000	0,004815
418,000000	0,004976
417,000000	0,004958
416,000000	0,005119
415,000000	0,005076
414,000000	0,004908
413,000000	0,004870
412,000000	0,005229
411,000000	0,005239
410,000000	0,005324
409,000000	0,005517
408,000000	0,005756
407,000000	0,005997
406,000000	0,006007
405,000000	0,006224
404,000000	0,006589
403,000000	0,006919
402,000000	0,006961
401,000000	0,007067
400,000000	0,012930
399,000000	0,038284
398,000000	0,037572
397,000000	0,038969
396,000000	0,039987
395,000000	0,040774
394,000000	0,039389
393,000000	0,037478
392,000000	0,041212
391,000000	0,040103
390,000000	0,040968
389,000000	0,040016
388,000000	0,037785
387,000000	0,038285
386,000000	0,037152
385,000000	0,037592
384,000000	0,037792
383,000000	0,037329
382,000000	0,036870
381,000000	0,038701
380,000000	0,036725
379,000000	0,035450
378,000000	0,036209
377,000000	0,038191
376,000000	0,036589
375,000000	0,037658
374,000000	0,037457
373,000000	0,035635
372,000000	0,035014
371,000000	0,036697
370,000000	0,035306
369,000000	0,034408
368,000000	0,034276
367,000000	0,032382
366,000000	0,034632
365,000000	0,033289
364,000000	0,031932
363,000000	0,031762
362,000000	0,031683
361,000000	0,030761
360,000000	0,027857
359,000000	0,026330
358,000000	0,026440
357,000000	0,026813
356,000000	0,024779
355,000000	0,024052
354,000000	0,024484
353,000000	0,024655
352,000000	0,022730
351,000000	0,022191
350,000000	0,022826
349,000000	0,022561
348,000000	0,021457
347,000000	0,020539
346,000000	0,021051
345,000000	0,019927
344,000000	0,019834
343,000000	0,020268
342,000000	0,020033
341,000000	0,019410
340,000000	0,019013
339,000000	0,018420
338,000000	0,018095
337,000000	0,018203
336,000000	0,017542
335,000000	0,017786
334,000000	0,017006
333,000000	0,016468
332,000000	0,016697
331,000000	0,016335
330,000000	0,015545
329,000000	0,015179
328,000000	0,015163
327,000000	0,015128
326,000000	0,014496
325,000000	0,014024
324,000000	0,013378
323,000000	0,013026
322,000000	0,012907
321,000000	0,012709
320,000000	0,012556
319,000000	0,012797
318,000000	0,012541
317,000000	0,012098
316,000000	0,011965
315,000000	0,011789
314,000000	0,011444
313,000000	0,011136
312,000000	0,010709
311,000000	0,010150
310,000000	0,009901
309,000000	0,010320
308,000000	0,010234
307,000000	0,009927
306,000000	0,009685
305,000000	0,009651
304,000000	0,009105
303,000000	0,008850
302,000000	0,008973
301,000000	0,009181
300,000000	0,008950
299,000000	0,008566
298,000000	0,008709
297,000000	0,008548
296,000000	0,008244
295,000000	0,008287
294,000000	0,008321
293,000000	0,008656
292,000000	0,008424
291,000000	0,008220
290,000000	0,008590
289,000000	0,008612
288,000000	0,008436
287,000000	0,008478
286,000000	0,008329
285,000000	0,007850
284,000000	0,007839
283,000000	0,007877
282,000000	0,007815
281,000000	0,007856
280,000000	0,008099
279,000000	0,008075
278,000000	0,007674
277,000000	0,007539
276,000000	0,007469
275,000000	0,007264
274,000000	0,007175
273,000000	0,007348
272,000000	0,007085
271,000000	0,006728
270,000000	0,006588
269,000000	0,006815
268,000000	0,006600
267,000000	0,006242
266,000000	0,005858
265,000000	0,005581
264,000000	0,005523
263,000000	0,005522
262,000000	0,005336
261,000000	0,005133
260,000000	0,004928
259,000000	0,004739
258,000000	0,004854
257,000000	0,004670
256,000000	0,004377
255,000000	0,004162
254,000000	0,004101
253,000000	0,003993
252,000000	0,003974
251,000000	0,003992
250,000000	0,003971
249,000000	0,003852
248,000000	0,003593
247,000000	0,003530
246,000000	0,003490
245,000000	0,003419
244,000000	0,003336
243,000000	0,003345
242,000000	0,003225
241,000000	0,003206
240,000000	0,003207
239,000000	0,003167
238,000000	0,003067
237,000000	0,003244
236,000000	0,003285
235,000000	0,003244
234,000000	0,003186
233,000000	0,003181
232,000000	0,003256
231,000000	0,003173
230,000000	0,003264
229,000000	0,003423
228,000000	0,003428
227,000000	0,003514
226,000000	0,003453
225,000000	0,003544
224,000000	0,003617
223,000000	0,003539
222,000000	0,003784
221,000000	0,003894
220,000000	0,003906
219,000000	0,003894
218,000000	0,003939
217,000000	0,004136
216,000000	0,004265
215,000000	0,004348
214,000000	0,004371
213,000000	0,004459
212,000000	0,004955
211,000000	0,005003
210,000000	0,005245
209,000000	0,005386
208,000000	0,005430
207,000000	0,005710
206,000000	0,006252
205,000000	0,006529
204,000000	0,006779
203,000000	0,007095
202,000000	0,007537
201,000000	0,008424
200,000000	0,009354
