PE UV       SUBTECH     SPECTRUM    ASCII       PEDS        4.00        
   -1
interference15.Probe.asc
24/07/02
11:59:30.00
24/07/02
11:59:30.00
student

200,000000
1
Lambda 365
365K7092207
  / Unknown

480
1
0,5
0
0
Both on
1
1
1
None
0
0
0
0
 
 
0
0
0
0
0
 
 
 
0
 
0
400
0
 
0
 
 
 
0
0
0
 
0
 
 
 
0
 
 
0
0
0
0
0
 
 
 
 
0
0


0
0
#HDR
-1
-1
#GR
nm
%T
1.0
0.0
1100,000000
-1,000000
901
8
43,212936
0,000482
#DATA
1100,000000	0,221611
1099,000000	0,194602
1098,000000	0,168828
1097,000000	0,144260
1096,000000	0,125731
1095,000000	0,122737
1094,000000	0,100656
1093,000000	0,093684
1092,000000	0,082106
1091,000000	0,062239
1090,000000	0,043240
1089,000000	0,025127
1088,000000	0,033718
1087,000000	0,024231
1086,000000	0,006078
1085,000000	0,019371
1084,000000	0,018932
1083,000000	0,018513
1082,000000	0,010937
1081,000000	0,001832
1080,000000	0,001865
1079,000000	0,001844
1078,000000	0,001738
1077,000000	0,001659
1076,000000	0,001611
1075,000000	0,001565
1074,000000	0,001581
1073,000000	0,001556
1072,000000	0,001512
1071,000000	0,001455
1070,000000	0,001397
1069,000000	0,001396
1068,000000	0,001396
1067,000000	0,001393
1066,000000	0,001350
1065,000000	0,001250
1064,000000	0,001210
1063,000000	0,001219
1062,000000	0,001231
1061,000000	0,001219
1060,000000	0,001180
1059,000000	0,001161
1058,000000	0,001131
1057,000000	0,001087
1056,000000	0,001043
1055,000000	0,001015
1054,000000	0,001025
1053,000000	0,000994
1052,000000	0,000948
1051,000000	0,000933
1050,000000	0,000950
1049,000000	0,000888
1048,000000	0,000888
1047,000000	0,000885
1046,000000	0,000869
1045,000000	0,000839
1044,000000	0,000799
1043,000000	0,000794
1042,000000	0,000782
1041,000000	0,000778
1040,000000	0,000784
1039,000000	0,000779
1038,000000	0,000775
1037,000000	0,000747
1036,000000	0,000734
1035,000000	0,000737
1034,000000	0,000701
1033,000000	0,000707
1032,000000	0,000711
1031,000000	0,000704
1030,000000	0,000691
1029,000000	0,000681
1028,000000	0,000659
1027,000000	0,000637
1026,000000	0,000627
1025,000000	0,000636
1024,000000	0,000659
1023,000000	0,000637
1022,000000	0,000622
1021,000000	0,000604
1020,000000	0,000596
1019,000000	0,000623
1018,000000	0,000582
1017,000000	0,000583
1016,000000	0,000582
1015,000000	0,000570
1014,000000	0,000564
1013,000000	0,000582
1012,000000	0,000597
1011,000000	0,000578
1010,000000	0,000548
1009,000000	0,000547
1008,000000	0,000559
1007,000000	0,000569
1006,000000	0,000575
1005,000000	0,000573
1004,000000	0,000560
1003,000000	0,000540
1002,000000	0,000545
1001,000000	0,000549
1000,000000	0,000558
999,000000	0,000575
998,000000	0,000555
997,000000	0,000555
996,000000	0,000561
995,000000	0,000565
994,000000	0,000561
993,000000	0,000539
992,000000	0,000529
991,000000	0,000535
990,000000	0,000538
989,000000	0,000526
988,000000	0,000527
987,000000	0,000540
986,000000	0,000554
985,000000	0,000559
984,000000	0,000548
983,000000	0,000528
982,000000	0,000539
981,000000	0,000549
980,000000	0,000553
979,000000	0,000552
978,000000	0,000534
977,000000	0,000559
976,000000	0,000565
975,000000	0,000563
974,000000	0,000557
973,000000	0,000537
972,000000	0,000541
971,000000	0,000565
970,000000	0,000580
969,000000	0,000575
968,000000	0,000563
967,000000	0,000580
966,000000	0,000571
965,000000	0,000574
964,000000	0,000595
963,000000	0,000599
962,000000	0,000570
961,000000	0,000578
960,000000	0,000586
959,000000	0,000576
958,000000	0,000559
957,000000	0,000604
956,000000	0,000584
955,000000	0,000570
954,000000	0,000583
953,000000	0,000609
952,000000	0,000611
951,000000	0,000616
950,000000	0,000614
949,000000	0,000609
948,000000	0,000617
947,000000	0,000605
946,000000	0,000625
945,000000	0,000636
944,000000	0,000634
943,000000	0,000631
942,000000	0,000641
941,000000	0,000620
940,000000	0,000620
939,000000	0,000634
938,000000	0,000635
937,000000	0,000632
936,000000	0,000637
935,000000	0,000638
934,000000	0,000652
933,000000	0,000688
932,000000	0,000698
931,000000	0,000676
930,000000	0,000679
929,000000	0,000679
928,000000	0,000655
927,000000	0,000698
926,000000	0,000705
925,000000	0,000686
924,000000	0,000680
923,000000	0,000703
922,000000	0,000678
921,000000	0,000701
920,000000	0,000721
919,000000	0,000733
918,000000	0,000733
917,000000	0,000707
916,000000	0,000707
915,000000	0,000727
914,000000	0,000752
913,000000	0,000769
912,000000	0,000784
911,000000	0,000780
910,000000	0,000769
909,000000	0,000762
908,000000	0,000762
907,000000	0,000770
906,000000	0,000813
905,000000	0,000830
904,000000	0,000824
903,000000	0,000813
902,000000	0,000822
901,000000	0,000837
900,000000	0,000845
899,000000	0,000858
898,000000	0,000865
897,000000	0,000840
896,000000	0,000850
895,000000	0,000864
894,000000	0,000878
893,000000	0,000886
892,000000	0,000879
891,000000	0,000898
890,000000	0,000897
889,000000	0,000895
888,000000	0,000895
887,000000	0,000895
886,000000	0,000921
885,000000	0,000963
884,000000	0,000978
883,000000	0,000978
882,000000	0,000996
881,000000	0,000997
880,000000	0,001017
879,000000	0,001022
878,000000	0,001020
877,000000	0,001027
876,000000	0,001005
875,000000	0,001023
874,000000	0,001061
873,000000	0,001085
872,000000	0,001068
871,000000	0,001037
870,000000	0,001091
869,000000	0,001082
868,000000	0,001071
867,000000	0,001131
866,000000	0,001103
865,000000	0,001088
864,000000	0,001122
863,000000	0,001163
862,000000	0,001172
861,000000	0,001207
860,000000	0,001169
859,000000	0,001168
858,000000	0,001180
857,000000	0,001175
856,000000	0,001167
855,000000	0,001176
854,000000	0,001210
853,000000	0,001219
852,000000	0,001185
851,000000	0,001173
850,000000	0,001227
849,000000	0,001219
848,000000	0,001204
847,000000	0,001221
846,000000	0,001254
845,000000	0,001212
844,000000	0,001253
843,000000	0,001283
842,000000	0,001260
841,000000	0,001240
840,000000	0,001254
839,000000	0,001241
838,000000	0,001232
837,000000	0,001236
836,000000	0,001237
835,000000	0,001325
834,000000	0,001284
833,000000	0,001289
832,000000	0,001335
831,000000	0,001242
830,000000	0,001275
829,000000	0,001274
828,000000	0,001282
827,000000	0,001307
826,000000	0,001321
825,000000	0,001268
824,000000	0,001316
823,000000	0,001324
822,000000	0,001279
821,000000	0,001255
820,000000	0,001245
819,000000	0,001305
818,000000	0,001303
817,000000	0,001266
816,000000	0,001289
815,000000	0,001286
814,000000	0,001252
813,000000	0,001269
812,000000	0,001313
811,000000	0,001319
810,000000	0,001225
809,000000	0,001209
808,000000	0,001249
807,000000	0,001290
806,000000	0,001277
805,000000	0,001231
804,000000	0,001247
803,000000	0,001226
802,000000	0,001224
801,000000	0,001277
800,000000	0,001211
799,000000	0,001180
798,000000	0,001220
797,000000	0,001258
796,000000	0,001246
795,000000	0,001217
794,000000	0,001218
793,000000	0,001234
792,000000	0,001211
791,000000	0,001152
790,000000	0,001130
789,000000	0,001202
788,000000	0,001211
787,000000	0,001172
786,000000	0,001136
785,000000	0,001176
784,000000	0,001167
783,000000	0,001158
782,000000	0,001122
781,000000	0,001106
780,000000	0,001177
779,000000	0,001167
778,000000	0,001113
777,000000	0,001098
776,000000	0,001119
775,000000	0,001140
774,000000	0,001100
773,000000	0,001130
772,000000	0,001104
771,000000	0,001081
770,000000	0,001114
769,000000	0,001047
768,000000	0,001055
767,000000	0,001064
766,000000	0,001071
765,000000	0,001084
764,000000	0,001107
763,000000	0,001103
762,000000	0,001098
761,000000	0,001067
760,000000	0,001030
759,000000	0,001081
758,000000	0,001064
757,000000	0,001022
756,000000	0,001003
755,000000	0,001018
754,000000	0,001032
753,000000	0,001037
752,000000	0,001040
751,000000	0,001024
750,000000	0,001000
749,000000	0,000998
748,000000	0,001004
747,000000	0,000999
746,000000	0,001007
745,000000	0,001019
744,000000	0,001016
743,000000	0,000994
742,000000	0,000993
741,000000	0,000986
740,000000	0,000989
739,000000	0,001018
738,000000	0,001030
737,000000	0,001004
736,000000	0,000970
735,000000	0,000953
734,000000	0,000967
733,000000	0,001012
732,000000	0,000997
731,000000	0,000974
730,000000	0,000961
729,000000	0,000960
728,000000	0,000954
727,000000	0,000995
726,000000	0,000987
725,000000	0,000960
724,000000	0,000948
723,000000	0,000976
722,000000	0,000984
721,000000	0,000941
720,000000	0,000933
719,000000	0,000964
718,000000	0,000982
717,000000	0,000920
716,000000	0,000948
715,000000	0,000942
714,000000	0,000931
713,000000	0,000974
712,000000	0,000923
711,000000	0,000915
710,000000	0,000922
709,000000	0,000933
708,000000	0,000941
707,000000	0,000928
706,000000	0,000933
705,000000	0,000927
704,000000	0,000925
703,000000	0,000931
702,000000	0,000906
701,000000	0,000901
700,000000	0,000909
699,000000	0,000922
698,000000	0,000922
697,000000	0,000870
696,000000	0,000859
695,000000	0,000863
694,000000	0,000873
693,000000	0,000875
692,000000	0,000852
691,000000	0,000887
690,000000	0,000855
689,000000	0,000837
688,000000	0,000850
687,000000	0,000865
686,000000	0,000820
685,000000	0,000817
684,000000	0,000824
683,000000	0,000828
682,000000	0,000824
681,000000	0,000790
680,000000	0,000771
679,000000	0,000749
678,000000	0,000731
677,000000	0,000726
676,000000	0,000734
675,000000	0,000693
674,000000	0,000650
673,000000	0,000634
672,000000	0,000640
671,000000	0,000588
670,000000	0,000570
669,000000	0,000534
668,000000	0,000500
667,000000	0,000482
666,000000	0,000485
665,000000	0,000498
664,000000	0,000507
663,000000	0,000526
662,000000	0,000559
661,000000	0,000591
660,000000	0,000641
659,000000	0,000690
658,000000	0,000741
657,000000	0,000790
656,000000	0,000825
655,000000	0,000844
654,000000	0,000894
653,000000	0,000915
652,000000	0,000901
651,000000	0,000881
650,000000	0,000877
649,000000	0,000906
648,000000	0,000894
647,000000	0,000881
646,000000	0,000934
645,000000	0,000926
644,000000	0,000919
643,000000	0,000913
642,000000	0,000907
641,000000	0,000903
640,000000	0,000905
639,000000	0,000882
638,000000	0,000886
637,000000	0,000902
636,000000	0,000914
635,000000	0,000949
634,000000	0,000966
633,000000	0,000957
632,000000	0,000957
631,000000	0,000967
630,000000	0,000908
629,000000	0,007220
628,000000	0,009032
627,000000	0,012624
626,000000	0,018170
625,000000	0,018226
624,000000	0,018280
623,000000	0,024025
622,000000	0,031510
621,000000	0,039044
620,000000	0,046640
619,000000	0,054273
618,000000	0,061965
617,000000	0,074020
616,000000	0,086856
615,000000	0,096168
614,000000	0,119343
613,000000	0,149212
612,000000	0,175682
611,000000	0,199412
610,000000	0,223367
609,000000	0,247541
608,000000	0,292799
607,000000	0,346043
606,000000	0,405741
605,000000	0,473295
604,000000	0,554260
603,000000	0,666041
602,000000	0,780513
601,000000	0,929230
600,000000	1,127357
599,000000	1,358598
598,000000	1,679989
597,000000	2,065839
596,000000	2,545803
595,000000	3,153360
594,000000	3,924395
593,000000	4,969061
592,000000	6,310453
591,000000	8,020630
590,000000	10,163231
589,000000	12,786373
588,000000	15,999633
587,000000	19,554702
586,000000	23,267092
585,000000	26,953630
584,000000	30,395092
583,000000	33,173029
582,000000	35,168374
581,000000	36,486498
580,000000	37,259938
579,000000	37,665452
578,000000	37,886655
577,000000	38,182604
576,000000	38,710615
575,000000	39,497009
574,000000	40,522574
573,000000	41,732924
572,000000	42,750314
571,000000	43,212936
570,000000	42,856377
569,000000	41,461588
568,000000	38,854792
567,000000	34,893539
566,000000	30,334875
565,000000	25,480920
564,000000	20,696033
563,000000	16,377457
562,000000	12,850470
561,000000	10,074110
560,000000	7,799017
559,000000	5,977900
558,000000	4,625388
557,000000	3,623338
556,000000	2,847748
555,000000	2,229952
554,000000	1,747944
553,000000	1,382678
552,000000	1,102790
551,000000	0,884311
550,000000	0,688997
549,000000	0,528011
548,000000	0,406369
547,000000	0,326195
546,000000	0,254696
545,000000	0,190291
544,000000	0,142550
543,000000	0,109385
542,000000	0,067383
541,000000	0,035285
540,000000	0,011811
539,000000	0,001443
538,000000	0,001446
537,000000	0,001405
536,000000	0,001452
535,000000	0,001450
534,000000	0,001453
533,000000	0,001490
532,000000	0,001559
531,000000	0,001569
530,000000	0,001546
529,000000	0,001534
528,000000	0,001523
527,000000	0,001494
526,000000	0,001531
525,000000	0,001605
524,000000	0,001587
523,000000	0,001557
522,000000	0,001608
521,000000	0,001592
520,000000	0,001613
519,000000	0,001637
518,000000	0,001669
517,000000	0,001695
516,000000	0,001634
515,000000	0,001710
514,000000	0,001678
513,000000	0,001649
512,000000	0,001705
511,000000	0,001778
510,000000	0,001798
509,000000	0,001746
508,000000	0,001756
507,000000	0,001845
506,000000	0,001859
505,000000	0,001823
504,000000	0,001772
503,000000	0,001749
502,000000	0,001782
501,000000	0,001884
500,000000	0,001834
499,000000	0,001849
498,000000	0,001856
497,000000	0,001835
496,000000	0,001813
495,000000	0,001900
494,000000	0,001884
493,000000	0,001844
492,000000	0,001856
491,000000	0,001953
490,000000	0,001910
489,000000	0,001859
488,000000	0,001903
487,000000	0,001963
486,000000	0,001955
485,000000	0,001954
484,000000	0,001884
483,000000	0,001856
482,000000	0,001831
481,000000	0,001791
480,000000	0,001827
479,000000	0,001799
478,000000	0,001783
477,000000	0,001766
476,000000	0,001737
475,000000	0,001712
474,000000	0,001724
473,000000	0,001771
472,000000	0,001836
471,000000	0,001887
470,000000	0,001877
469,000000	0,001972
468,000000	0,002038
467,000000	0,002122
466,000000	0,002205
465,000000	0,002202
464,000000	0,002339
463,000000	0,002408
462,000000	0,002533
461,000000	0,002731
460,000000	0,002814
459,000000	0,002905
458,000000	0,002946
457,000000	0,002930
456,000000	0,002906
455,000000	0,003106
454,000000	0,003130
453,000000	0,003264
452,000000	0,003361
451,000000	0,003277
450,000000	0,003424
449,000000	0,003508
448,000000	0,003469
447,000000	0,003402
446,000000	0,003421
445,000000	0,003624
444,000000	0,003609
443,000000	0,003665
442,000000	0,003667
441,000000	0,003719
440,000000	0,003958
439,000000	0,003828
438,000000	0,004026
437,000000	0,004145
436,000000	0,004195
435,000000	0,004192
434,000000	0,003998
433,000000	0,004107
432,000000	0,004237
431,000000	0,004418
430,000000	0,004574
429,000000	0,004567
428,000000	0,004590
427,000000	0,004559
426,000000	0,004587
425,000000	0,004638
424,000000	0,004676
423,000000	0,004766
422,000000	0,004890
421,000000	0,005005
420,000000	0,005003
419,000000	0,004881
418,000000	0,004747
417,000000	0,004840
416,000000	0,004902
415,000000	0,004934
414,000000	0,005026
413,000000	0,005227
412,000000	0,005043
411,000000	0,005221
410,000000	0,005219
409,000000	0,005231
408,000000	0,005538
407,000000	0,005878
406,000000	0,005915
405,000000	0,005987
404,000000	0,006319
403,000000	0,006872
402,000000	0,006807
401,000000	0,007358
400,000000	0,013325
399,000000	0,039355
398,000000	0,039971
397,000000	0,040173
396,000000	0,042074
395,000000	0,040588
394,000000	0,038918
393,000000	0,038625
392,000000	0,038753
391,000000	0,039781
390,000000	0,039906
389,000000	0,038907
388,000000	0,038038
387,000000	0,039431
386,000000	0,039412
385,000000	0,039858
384,000000	0,039037
383,000000	0,037386
382,000000	0,036985
381,000000	0,037950
380,000000	0,036489
379,000000	0,035605
378,000000	0,035969
377,000000	0,036667
376,000000	0,038029
375,000000	0,037557
374,000000	0,037116
373,000000	0,037178
372,000000	0,036991
371,000000	0,036285
370,000000	0,035588
369,000000	0,035604
368,000000	0,035741
367,000000	0,034320
366,000000	0,034929
365,000000	0,033597
364,000000	0,033124
363,000000	0,033636
362,000000	0,032731
361,000000	0,030583
360,000000	0,027751
359,000000	0,026774
358,000000	0,027003
357,000000	0,026140
356,000000	0,026261
355,000000	0,024552
354,000000	0,023716
353,000000	0,023887
352,000000	0,023733
351,000000	0,023462
350,000000	0,022534
349,000000	0,021819
348,000000	0,021724
347,000000	0,022238
346,000000	0,021543
345,000000	0,021263
344,000000	0,020756
343,000000	0,020141
342,000000	0,019590
341,000000	0,018341
340,000000	0,018331
339,000000	0,018738
338,000000	0,018805
337,000000	0,018101
336,000000	0,017054
335,000000	0,016721
334,000000	0,016897
333,000000	0,017032
332,000000	0,016835
331,000000	0,016530
330,000000	0,015140
329,000000	0,015123
328,000000	0,015008
327,000000	0,014425
326,000000	0,014237
325,000000	0,014546
324,000000	0,014332
323,000000	0,014007
322,000000	0,013762
321,000000	0,013564
320,000000	0,012410
319,000000	0,012561
318,000000	0,012173
317,000000	0,011618
316,000000	0,011678
315,000000	0,011956
314,000000	0,011188
313,000000	0,010755
312,000000	0,010757
311,000000	0,010885
310,000000	0,010375
309,000000	0,010006
308,000000	0,009630
307,000000	0,009625
306,000000	0,009817
305,000000	0,009275
304,000000	0,009137
303,000000	0,008927
302,000000	0,008805
301,000000	0,008797
300,000000	0,008804
299,000000	0,008419
298,000000	0,008422
297,000000	0,008451
296,000000	0,008520
295,000000	0,008746
294,000000	0,008825
293,000000	0,008494
292,000000	0,008570
291,000000	0,008657
290,000000	0,008339
289,000000	0,008214
288,000000	0,008207
287,000000	0,008412
286,000000	0,008563
285,000000	0,008515
284,000000	0,008521
283,000000	0,008182
282,000000	0,007869
281,000000	0,007749
280,000000	0,007853
279,000000	0,007805
278,000000	0,007740
277,000000	0,007552
276,000000	0,007344
275,000000	0,007273
274,000000	0,007538
273,000000	0,007195
272,000000	0,006973
271,000000	0,006771
270,000000	0,006534
269,000000	0,006363
268,000000	0,006536
267,000000	0,006420
266,000000	0,006014
265,000000	0,005585
264,000000	0,005502
263,000000	0,005209
262,000000	0,005090
261,000000	0,005020
260,000000	0,004926
259,000000	0,004791
258,000000	0,004797
257,000000	0,004571
256,000000	0,004330
255,000000	0,004210
254,000000	0,004214
253,000000	0,004056
252,000000	0,004166
251,000000	0,004127
250,000000	0,003975
249,000000	0,003792
248,000000	0,003672
247,000000	0,003563
246,000000	0,003442
245,000000	0,003407
244,000000	0,003463
243,000000	0,003507
242,000000	0,003480
241,000000	0,003376
240,000000	0,003303
239,000000	0,003272
238,000000	0,003204
237,000000	0,003158
236,000000	0,003146
235,000000	0,003136
234,000000	0,003174
233,000000	0,003326
232,000000	0,003277
231,000000	0,003322
230,000000	0,003361
229,000000	0,003347
228,000000	0,003279
227,000000	0,003271
226,000000	0,003306
225,000000	0,003491
224,000000	0,003616
223,000000	0,003515
222,000000	0,003536
221,000000	0,003685
220,000000	0,003830
219,000000	0,003948
218,000000	0,004024
217,000000	0,004028
216,000000	0,004289
215,000000	0,004381
214,000000	0,004495
213,000000	0,004703
212,000000	0,004810
211,000000	0,004772
210,000000	0,004992
209,000000	0,005282
208,000000	0,005577
207,000000	0,005931
206,000000	0,006114
205,000000	0,006750
204,000000	0,007073
203,000000	0,007127
202,000000	0,007597
201,000000	0,008541
200,000000	0,009006
