PE UV       SUBTECH     SPECTRUM    ASCII       PEDS        4.00        
   -1
red0.asc
24/07/02
10:14:47.00
24/07/02
10:14:47.00
student

200,000000
1
Lambda 365
365K7092207
  / Unknown

480
1
0,5
0
0
Both on
1
1
1
None
0
0
0
0
 
 
0
0
0
0
0
 
 
 
0
 
0
400
0
 
0
 
 
 
0
0
0
 
0
 
 
 
0
 
 
0
0
0
0
0
 
 
 
 
0
0


0
0
#HDR
-1
-1
#GR
nm
%T
1.0
0.0
1100,000000
-1,000000
901
8
85,980362
0,003152
#DATA
1100,000000	73,859651
1099,000000	73,859466
1098,000000	73,853126
1097,000000	73,859482
1096,000000	73,875626
1095,000000	73,877090
1094,000000	73,865343
1093,000000	73,868572
1092,000000	73,895168
1091,000000	73,915135
1090,000000	73,872444
1089,000000	73,878483
1088,000000	73,891334
1087,000000	73,892504
1086,000000	73,882362
1085,000000	73,874366
1084,000000	73,899892
1083,000000	73,909420
1082,000000	73,925671
1081,000000	73,925502
1080,000000	73,874951
1079,000000	73,900062
1078,000000	73,908093
1077,000000	73,903157
1076,000000	73,893208
1075,000000	73,888609
1074,000000	73,906073
1073,000000	73,887053
1072,000000	73,892623
1071,000000	73,918109
1070,000000	73,937652
1069,000000	73,930462
1068,000000	73,932880
1067,000000	73,937634
1066,000000	73,933932
1065,000000	73,919038
1064,000000	73,933685
1063,000000	73,932944
1062,000000	73,925597
1061,000000	73,918928
1060,000000	73,920048
1059,000000	73,938364
1058,000000	73,956222
1057,000000	73,963982
1056,000000	73,971929
1055,000000	73,984881
1054,000000	73,981757
1053,000000	73,950310
1052,000000	73,961122
1051,000000	73,981353
1050,000000	73,984809
1049,000000	73,989531
1048,000000	73,993135
1047,000000	73,992485
1046,000000	73,997271
1045,000000	74,006087
1044,000000	73,993892
1043,000000	74,007316
1042,000000	74,010573
1041,000000	74,008156
1040,000000	74,005927
1039,000000	74,008149
1038,000000	74,005429
1037,000000	74,021371
1036,000000	74,036042
1035,000000	74,042965
1034,000000	74,054399
1033,000000	74,062228
1032,000000	74,066123
1031,000000	74,072113
1030,000000	74,079935
1029,000000	74,082913
1028,000000	74,079701
1027,000000	74,086841
1026,000000	74,087821
1025,000000	74,085206
1024,000000	74,096326
1023,000000	74,095867
1022,000000	74,104428
1021,000000	74,110943
1020,000000	74,113514
1019,000000	74,116482
1018,000000	74,126101
1017,000000	74,133452
1016,000000	74,141808
1015,000000	74,146011
1014,000000	74,139500
1013,000000	74,155576
1012,000000	74,166988
1011,000000	74,175427
1010,000000	74,183152
1009,000000	74,193146
1008,000000	74,212200
1007,000000	74,214248
1006,000000	74,218467
1005,000000	74,230713
1004,000000	74,248470
1003,000000	74,243920
1002,000000	74,252837
1001,000000	74,267830
1000,000000	74,278408
999,000000	74,278257
998,000000	74,287178
997,000000	74,284399
996,000000	74,288468
995,000000	74,300079
994,000000	74,314468
993,000000	74,321318
992,000000	74,325372
991,000000	74,339180
990,000000	74,350738
989,000000	74,352841
988,000000	74,366506
987,000000	74,382739
986,000000	74,394649
985,000000	74,406940
984,000000	74,420708
983,000000	74,424013
982,000000	74,434650
981,000000	74,446540
980,000000	74,455717
979,000000	74,465452
978,000000	74,493775
977,000000	74,494969
976,000000	74,505123
975,000000	74,517681
974,000000	74,526746
973,000000	74,531738
972,000000	74,555328
971,000000	74,567542
970,000000	74,571292
969,000000	74,574649
968,000000	74,590752
967,000000	74,603142
966,000000	74,610597
965,000000	74,622247
964,000000	74,639881
963,000000	74,657092
962,000000	74,657303
961,000000	74,683573
960,000000	74,709205
959,000000	74,724182
958,000000	74,733416
957,000000	74,759600
956,000000	74,775188
955,000000	74,793987
954,000000	74,809591
953,000000	74,804674
952,000000	74,821411
951,000000	74,841863
950,000000	74,860192
949,000000	74,870830
948,000000	74,872120
947,000000	74,902966
946,000000	74,914456
945,000000	74,934484
944,000000	74,962201
943,000000	74,983609
942,000000	74,988323
941,000000	74,999279
940,000000	75,013837
939,000000	75,034741
938,000000	75,062841
937,000000	75,074703
936,000000	75,093614
935,000000	75,117350
934,000000	75,142404
933,000000	75,164057
932,000000	75,174170
931,000000	75,193818
930,000000	75,219487
929,000000	75,243064
928,000000	75,255823
927,000000	75,250083
926,000000	75,268390
925,000000	75,296242
924,000000	75,324396
923,000000	75,347152
922,000000	75,367593
921,000000	75,377140
920,000000	75,394056
919,000000	75,411280
918,000000	75,426740
917,000000	75,459567
916,000000	75,475755
915,000000	75,502512
914,000000	75,531706
913,000000	75,557966
912,000000	75,587840
911,000000	75,588908
910,000000	75,631198
909,000000	75,660831
908,000000	75,663427
907,000000	75,701270
906,000000	75,715923
905,000000	75,735597
904,000000	75,758732
903,000000	75,784830
902,000000	75,816253
901,000000	75,830645
900,000000	75,849653
899,000000	75,884541
898,000000	75,925715
897,000000	75,942636
896,000000	75,970057
895,000000	76,009158
894,000000	76,033405
893,000000	76,045941
892,000000	76,074246
891,000000	76,098526
890,000000	76,123036
889,000000	76,153107
888,000000	76,182222
887,000000	76,198416
886,000000	76,243611
885,000000	76,263282
884,000000	76,281750
883,000000	76,314970
882,000000	76,368353
881,000000	76,369477
880,000000	76,410049
879,000000	76,441601
878,000000	76,470572
877,000000	76,518497
876,000000	76,528261
875,000000	76,549328
874,000000	76,590176
873,000000	76,635020
872,000000	76,665138
871,000000	76,703247
870,000000	76,732896
869,000000	76,760016
868,000000	76,781674
867,000000	76,796506
866,000000	76,822471
865,000000	76,874131
864,000000	76,898784
863,000000	76,921440
862,000000	76,967343
861,000000	76,997016
860,000000	77,009700
859,000000	77,037371
858,000000	77,079112
857,000000	77,128001
856,000000	77,176126
855,000000	77,211061
854,000000	77,258035
853,000000	77,290488
852,000000	77,301295
851,000000	77,345830
850,000000	77,362381
849,000000	77,395407
848,000000	77,438968
847,000000	77,484045
846,000000	77,524253
845,000000	77,560913
844,000000	77,597888
843,000000	77,636046
842,000000	77,673097
841,000000	77,701934
840,000000	77,756477
839,000000	77,797690
838,000000	77,832600
837,000000	77,865140
836,000000	77,893438
835,000000	77,941370
834,000000	77,978416
833,000000	78,016753
832,000000	78,056170
831,000000	78,084142
830,000000	78,140159
829,000000	78,172709
828,000000	78,202241
827,000000	78,234350
826,000000	78,263732
825,000000	78,318786
824,000000	78,369606
823,000000	78,419410
822,000000	78,461887
821,000000	78,487042
820,000000	78,523474
819,000000	78,596631
818,000000	78,646045
817,000000	78,667996
816,000000	78,689734
815,000000	78,756943
814,000000	78,806415
813,000000	78,836074
812,000000	78,862977
811,000000	78,908261
810,000000	78,958469
809,000000	79,000637
808,000000	79,054091
807,000000	79,106169
806,000000	79,141685
805,000000	79,193006
804,000000	79,244756
803,000000	79,283811
802,000000	79,330552
801,000000	79,395204
800,000000	79,428208
799,000000	79,473705
798,000000	79,512140
797,000000	79,552823
796,000000	79,603057
795,000000	79,658381
794,000000	79,699080
793,000000	79,741296
792,000000	79,795857
791,000000	79,856037
790,000000	79,891608
789,000000	79,929030
788,000000	79,966858
787,000000	80,017719
786,000000	80,075081
785,000000	80,116984
784,000000	80,187955
783,000000	80,232363
782,000000	80,270239
781,000000	80,307539
780,000000	80,345072
779,000000	80,422406
778,000000	80,456954
777,000000	80,510059
776,000000	80,568963
775,000000	80,602951
774,000000	80,647499
773,000000	80,722040
772,000000	80,783040
771,000000	80,831527
770,000000	80,876267
769,000000	80,913402
768,000000	80,963768
767,000000	81,012764
766,000000	81,057877
765,000000	81,099289
764,000000	81,139115
763,000000	81,213969
762,000000	81,271390
761,000000	81,325304
760,000000	81,383587
759,000000	81,436519
758,000000	81,480127
757,000000	81,535186
756,000000	81,583550
755,000000	81,624026
754,000000	81,673005
753,000000	81,734474
752,000000	81,777563
751,000000	81,824805
750,000000	81,879426
749,000000	81,931937
748,000000	81,984149
747,000000	82,029087
746,000000	82,089841
745,000000	82,152039
744,000000	82,192083
743,000000	82,232518
742,000000	82,288898
741,000000	82,351464
740,000000	82,406303
739,000000	82,448181
738,000000	82,510566
737,000000	82,540756
736,000000	82,596615
735,000000	82,648429
734,000000	82,681985
733,000000	82,754618
732,000000	82,782157
731,000000	82,831489
730,000000	82,886655
729,000000	82,936501
728,000000	82,987532
727,000000	83,040951
726,000000	83,084433
725,000000	83,127384
724,000000	83,176490
723,000000	83,234061
722,000000	83,269766
721,000000	83,321539
720,000000	83,368689
719,000000	83,416206
718,000000	83,480742
717,000000	83,514842
716,000000	83,564666
715,000000	83,603634
714,000000	83,641891
713,000000	83,697074
712,000000	83,737376
711,000000	83,777211
710,000000	83,840400
709,000000	83,900825
708,000000	83,936289
707,000000	83,987438
706,000000	84,021276
705,000000	84,068031
704,000000	84,122942
703,000000	84,173911
702,000000	84,203536
701,000000	84,245270
700,000000	84,285716
699,000000	84,331828
698,000000	84,379667
697,000000	84,407150
696,000000	84,452975
695,000000	84,497021
694,000000	84,540041
693,000000	84,584567
692,000000	84,633569
691,000000	84,660870
690,000000	84,705452
689,000000	84,749310
688,000000	84,784638
687,000000	84,812052
686,000000	84,855664
685,000000	84,890585
684,000000	84,941207
683,000000	84,998346
682,000000	85,043157
681,000000	85,076601
680,000000	85,120270
679,000000	85,158229
678,000000	85,190005
677,000000	85,221410
676,000000	85,268648
675,000000	85,291416
674,000000	85,319513
673,000000	85,359368
672,000000	85,405087
671,000000	85,430799
670,000000	85,456174
669,000000	85,488279
668,000000	85,521499
667,000000	85,548222
666,000000	85,557859
665,000000	85,603389
664,000000	85,630150
663,000000	85,653973
662,000000	85,681976
661,000000	85,699553
660,000000	85,723981
659,000000	85,748069
658,000000	85,762819
657,000000	85,767611
656,000000	85,774334
655,000000	85,788248
654,000000	85,810628
653,000000	85,833185
652,000000	85,853438
651,000000	85,873252
650,000000	85,900157
649,000000	85,908334
648,000000	85,921876
647,000000	85,940168
646,000000	85,952088
645,000000	85,954715
644,000000	85,955261
643,000000	85,957531
642,000000	85,959473
641,000000	85,957635
640,000000	85,950434
639,000000	85,980362
638,000000	85,968257
637,000000	85,941208
636,000000	85,932371
635,000000	85,929554
634,000000	85,916224
633,000000	85,893594
632,000000	85,864842
631,000000	85,831037
630,000000	85,788476
629,000000	85,787751
628,000000	85,752144
627,000000	85,692175
626,000000	85,620580
625,000000	85,547962
624,000000	85,500960
623,000000	85,438248
622,000000	85,351981
621,000000	85,251670
620,000000	85,157635
619,000000	85,055691
618,000000	84,944918
617,000000	84,808969
616,000000	84,654965
615,000000	84,496861
614,000000	84,314633
613,000000	84,120536
612,000000	83,909470
611,000000	83,690135
610,000000	83,464929
609,000000	83,191511
608,000000	82,906472
607,000000	82,603658
606,000000	82,289320
605,000000	81,960625
604,000000	81,584805
603,000000	81,200543
602,000000	80,792477
601,000000	80,364622
600,000000	79,916239
599,000000	79,436810
598,000000	78,942004
597,000000	78,405217
596,000000	77,855123
595,000000	77,291156
594,000000	76,685335
593,000000	76,062302
592,000000	75,419287
591,000000	74,769972
590,000000	74,102531
589,000000	73,396143
588,000000	72,697058
587,000000	71,956000
586,000000	71,232874
585,000000	70,498675
584,000000	69,708433
583,000000	68,914895
582,000000	68,110923
581,000000	67,301945
580,000000	66,479051
579,000000	65,640396
578,000000	64,828250
577,000000	63,999828
576,000000	63,185369
575,000000	62,370491
574,000000	61,551310
573,000000	60,751103
572,000000	59,972524
571,000000	59,175412
570,000000	58,376914
569,000000	57,589303
568,000000	56,814012
567,000000	56,014072
566,000000	55,227689
565,000000	54,442582
564,000000	53,661702
563,000000	52,899587
562,000000	52,143425
561,000000	51,417435
560,000000	50,700901
559,000000	49,992647
558,000000	49,299959
557,000000	48,625809
556,000000	47,963754
555,000000	47,302654
554,000000	46,649144
553,000000	46,008500
552,000000	45,357996
551,000000	44,746463
550,000000	44,121961
549,000000	43,507478
548,000000	42,905270
547,000000	42,336394
546,000000	41,776697
545,000000	41,218372
544,000000	40,677952
543,000000	40,162140
542,000000	39,655806
541,000000	39,176584
540,000000	38,691850
539,000000	38,214299
538,000000	37,757435
537,000000	37,332100
536,000000	36,894987
535,000000	36,464288
534,000000	36,039167
533,000000	35,622858
532,000000	35,220280
531,000000	34,837340
530,000000	34,470366
529,000000	34,112750
528,000000	33,758765
527,000000	33,407270
526,000000	33,099850
525,000000	32,779641
524,000000	32,465102
523,000000	32,168736
522,000000	31,896552
521,000000	31,635036
520,000000	31,363267
519,000000	31,107465
518,000000	30,859007
517,000000	30,609834
516,000000	30,383502
515,000000	30,175720
514,000000	29,972972
513,000000	29,768682
512,000000	29,567294
511,000000	29,394912
510,000000	29,234035
509,000000	29,077093
508,000000	28,942032
507,000000	28,828568
506,000000	28,711040
505,000000	28,603498
504,000000	28,502129
503,000000	28,414019
502,000000	28,334102
501,000000	28,248234
500,000000	28,198858
499,000000	28,170687
498,000000	28,141050
497,000000	28,116964
496,000000	28,117209
495,000000	28,095350
494,000000	28,102026
493,000000	28,128350
492,000000	28,161127
491,000000	28,192760
490,000000	28,267532
489,000000	28,329563
488,000000	28,400616
487,000000	28,486165
486,000000	28,587036
485,000000	28,704594
484,000000	28,814290
483,000000	28,960784
482,000000	29,118591
481,000000	29,270713
480,000000	29,447413
479,000000	29,625976
478,000000	29,815934
477,000000	30,013366
476,000000	30,218688
475,000000	30,441562
474,000000	30,666108
473,000000	30,906411
472,000000	31,160813
471,000000	31,426003
470,000000	31,697815
469,000000	31,991244
468,000000	32,280812
467,000000	32,583881
466,000000	32,909678
465,000000	33,261111
464,000000	33,584768
463,000000	33,938764
462,000000	34,289681
461,000000	34,639459
460,000000	35,060374
459,000000	35,443750
458,000000	35,859481
457,000000	36,276392
456,000000	36,675385
455,000000	37,103443
454,000000	37,531539
453,000000	37,971161
452,000000	38,429153
451,000000	38,908921
450,000000	39,400537
449,000000	39,935160
448,000000	40,463820
447,000000	40,994791
446,000000	41,520875
445,000000	41,997581
444,000000	42,563954
443,000000	43,101266
442,000000	43,659582
441,000000	44,219390
440,000000	44,736163
439,000000	45,279520
438,000000	45,815185
437,000000	46,398671
436,000000	46,983035
435,000000	47,544607
434,000000	48,155161
433,000000	48,734540
432,000000	49,309908
431,000000	49,880561
430,000000	50,457523
429,000000	51,053307
428,000000	51,628579
427,000000	52,130281
426,000000	52,704675
425,000000	53,286595
424,000000	53,804909
423,000000	54,330021
422,000000	54,733989
421,000000	55,273036
420,000000	55,809599
419,000000	56,303203
418,000000	56,831334
417,000000	57,337422
416,000000	57,809982
415,000000	58,289086
414,000000	58,756624
413,000000	59,184974
412,000000	59,621381
411,000000	60,080755
410,000000	60,492328
409,000000	60,845410
408,000000	61,159546
407,000000	61,511386
406,000000	61,814013
405,000000	62,102300
404,000000	62,419160
403,000000	62,769451
402,000000	63,020027
401,000000	63,269172
400,000000	63,070122
399,000000	61,966896
398,000000	62,249539
397,000000	62,391759
396,000000	62,297088
395,000000	62,603358
394,000000	62,870943
393,000000	62,887161
392,000000	62,756229
391,000000	62,887463
390,000000	62,903377
389,000000	62,967780
388,000000	62,901492
387,000000	62,259878
386,000000	62,527077
385,000000	62,428802
384,000000	62,198453
383,000000	62,014384
382,000000	62,010446
381,000000	61,829335
380,000000	61,925813
379,000000	61,895353
378,000000	61,775064
377,000000	61,953291
376,000000	62,123003
375,000000	62,250216
374,000000	62,506627
373,000000	62,712128
372,000000	62,397959
371,000000	62,352198
370,000000	62,455533
369,000000	62,494583
368,000000	62,300533
367,000000	61,735126
366,000000	61,126346
365,000000	60,876462
364,000000	60,453402
363,000000	59,793108
362,000000	59,264131
361,000000	58,653276
360,000000	57,803043
359,000000	57,064241
358,000000	56,308368
357,000000	55,294010
356,000000	54,221770
355,000000	53,338693
354,000000	52,487665
353,000000	51,482998
352,000000	50,188978
351,000000	48,956103
350,000000	47,643386
349,000000	46,385055
348,000000	45,098367
347,000000	43,666690
346,000000	42,477270
345,000000	41,089926
344,000000	39,536081
343,000000	37,954510
342,000000	36,433890
341,000000	34,815496
340,000000	33,297017
339,000000	31,713256
338,000000	30,081977
337,000000	28,409074
336,000000	26,529291
335,000000	24,758897
334,000000	22,850338
333,000000	20,971180
332,000000	19,176920
331,000000	17,266817
330,000000	15,579116
329,000000	13,925602
328,000000	12,293894
327,000000	10,698655
326,000000	9,156678
325,000000	7,783201
324,000000	6,455971
323,000000	5,300090
322,000000	4,278717
321,000000	3,293162
320,000000	2,441863
319,000000	1,701011
318,000000	1,117091
317,000000	0,598147
316,000000	0,101424
315,000000	0,020644
314,000000	0,011052
313,000000	0,010761
312,000000	0,010568
311,000000	0,010306
310,000000	0,010610
309,000000	0,010238
308,000000	0,009854
307,000000	0,009586
306,000000	0,009514
305,000000	0,009710
304,000000	0,009355
303,000000	0,009358
302,000000	0,009198
301,000000	0,008839
300,000000	0,008634
299,000000	0,008913
298,000000	0,008586
297,000000	0,008358
296,000000	0,008298
295,000000	0,008230
294,000000	0,008317
293,000000	0,008137
292,000000	0,008339
291,000000	0,008644
290,000000	0,008635
289,000000	0,008244
288,000000	0,008438
287,000000	0,008367
286,000000	0,008317
285,000000	0,008463
284,000000	0,008363
283,000000	0,008132
282,000000	0,007855
281,000000	0,007731
280,000000	0,007833
279,000000	0,007708
278,000000	0,007818
277,000000	0,007659
276,000000	0,007533
275,000000	0,007583
274,000000	0,007083
273,000000	0,007161
272,000000	0,007222
271,000000	0,006983
270,000000	0,006609
269,000000	0,006790
268,000000	0,006196
267,000000	0,006229
266,000000	0,006144
265,000000	0,005839
264,000000	0,005654
263,000000	0,005603
262,000000	0,005349
261,000000	0,005063
260,000000	0,004921
259,000000	0,004958
258,000000	0,004543
257,000000	0,004503
256,000000	0,004503
255,000000	0,004384
254,000000	0,004147
253,000000	0,004092
252,000000	0,003997
251,000000	0,003933
250,000000	0,003831
249,000000	0,003711
248,000000	0,003722
247,000000	0,003548
246,000000	0,003428
245,000000	0,003454
244,000000	0,003511
243,000000	0,003252
242,000000	0,003339
241,000000	0,003376
240,000000	0,003284
239,000000	0,003176
238,000000	0,003320
237,000000	0,003281
236,000000	0,003189
235,000000	0,003152
234,000000	0,003191
233,000000	0,003275
232,000000	0,003317
231,000000	0,003259
230,000000	0,003220
229,000000	0,003240
228,000000	0,003316
227,000000	0,003381
226,000000	0,003370
225,000000	0,003470
224,000000	0,003546
223,000000	0,003485
222,000000	0,003576
221,000000	0,003774
220,000000	0,003863
219,000000	0,003873
218,000000	0,003930
217,000000	0,004290
216,000000	0,004250
215,000000	0,004201
214,000000	0,004311
213,000000	0,004565
212,000000	0,004677
211,000000	0,004988
210,000000	0,005270
209,000000	0,005553
208,000000	0,005741
207,000000	0,005610
206,000000	0,005890
205,000000	0,006336
204,000000	0,006716
203,000000	0,007078
202,000000	0,007740
201,000000	0,008571
200,000000	0,009425
