PE UV       SUBTECH     SPECTRUM    ASCII       PEDS        4.00        
   -1
red15.asc
24/07/02
10:17:46.00
24/07/02
10:17:46.00
student

200,000000
1
Lambda 365
365K7092207
  / Unknown

480
1
0,5
0
0
Both on
1
1
1
None
0
0
0
0
 
 
0
0
0
0
0
 
 
 
0
 
0
400
0
 
0
 
 
 
0
0
0
 
0
 
 
 
0
 
 
0
0
0
0
0
 
 
 
 
0
0


0
0
#HDR
-1
-1
#GR
nm
%T
1.0
0.0
1100,000000
-1,000000
901
8
85,307739
0,003093
#DATA
1100,000000	73,348363
1099,000000	73,344729
1098,000000	73,311108
1097,000000	73,300473
1096,000000	73,321001
1095,000000	73,335517
1094,000000	73,336317
1093,000000	73,337870
1092,000000	73,340517
1091,000000	73,338411
1090,000000	73,321096
1089,000000	73,279441
1088,000000	73,334114
1087,000000	73,351647
1086,000000	73,329840
1085,000000	73,345351
1084,000000	73,352308
1083,000000	73,347308
1082,000000	73,337279
1081,000000	73,328927
1080,000000	73,329589
1079,000000	73,359076
1078,000000	73,363803
1077,000000	73,356937
1076,000000	73,348139
1075,000000	73,346071
1074,000000	73,362841
1073,000000	73,382153
1072,000000	73,384908
1071,000000	73,380588
1070,000000	73,385188
1069,000000	73,394611
1068,000000	73,382582
1067,000000	73,390927
1066,000000	73,399847
1065,000000	73,386874
1064,000000	73,394295
1063,000000	73,383848
1062,000000	73,371290
1061,000000	73,363925
1060,000000	73,364180
1059,000000	73,363658
1058,000000	73,371378
1057,000000	73,390473
1056,000000	73,408702
1055,000000	73,417181
1054,000000	73,423110
1053,000000	73,417046
1052,000000	73,421087
1051,000000	73,426684
1050,000000	73,428346
1049,000000	73,436588
1048,000000	73,445034
1047,000000	73,447069
1046,000000	73,452048
1045,000000	73,461570
1044,000000	73,459786
1043,000000	73,464070
1042,000000	73,469334
1041,000000	73,476328
1040,000000	73,481511
1039,000000	73,473845
1038,000000	73,477382
1037,000000	73,489462
1036,000000	73,501981
1035,000000	73,509971
1034,000000	73,512517
1033,000000	73,505288
1032,000000	73,505594
1031,000000	73,505159
1030,000000	73,508423
1029,000000	73,532763
1028,000000	73,519443
1027,000000	73,537115
1026,000000	73,543371
1025,000000	73,540700
1024,000000	73,566501
1023,000000	73,559925
1022,000000	73,565445
1021,000000	73,572399
1020,000000	73,577594
1019,000000	73,582938
1018,000000	73,593577
1017,000000	73,599526
1016,000000	73,606868
1015,000000	73,610385
1014,000000	73,601722
1013,000000	73,609430
1012,000000	73,628203
1011,000000	73,639475
1010,000000	73,639798
1009,000000	73,635082
1008,000000	73,655224
1007,000000	73,662822
1006,000000	73,664613
1005,000000	73,669278
1004,000000	73,682765
1003,000000	73,687052
1002,000000	73,695722
1001,000000	73,707598
1000,000000	73,717669
999,000000	73,722004
998,000000	73,727609
997,000000	73,735214
996,000000	73,744020
995,000000	73,756121
994,000000	73,770524
993,000000	73,771294
992,000000	73,786866
991,000000	73,801308
990,000000	73,808889
989,000000	73,809265
988,000000	73,813019
987,000000	73,826282
986,000000	73,832170
985,000000	73,842559
984,000000	73,859728
983,000000	73,852363
982,000000	73,861546
981,000000	73,874362
980,000000	73,888735
979,000000	73,902390
978,000000	73,910700
977,000000	73,922903
976,000000	73,929620
975,000000	73,940526
974,000000	73,957637
973,000000	73,968711
972,000000	73,972920
971,000000	73,983981
970,000000	73,999609
969,000000	74,017907
968,000000	74,038429
967,000000	74,047212
966,000000	74,063271
965,000000	74,082375
964,000000	74,096930
963,000000	74,096340
962,000000	74,101064
961,000000	74,118921
960,000000	74,132746
959,000000	74,141069
958,000000	74,155505
957,000000	74,170410
956,000000	74,180977
955,000000	74,197676
954,000000	74,217665
953,000000	74,229737
952,000000	74,240574
951,000000	74,263647
950,000000	74,289803
949,000000	74,306726
948,000000	74,305477
947,000000	74,334654
946,000000	74,342627
945,000000	74,362694
944,000000	74,388581
943,000000	74,399433
942,000000	74,410495
941,000000	74,429398
940,000000	74,441784
939,000000	74,455549
938,000000	74,480770
937,000000	74,488313
936,000000	74,507802
935,000000	74,520413
934,000000	74,534299
933,000000	74,559618
932,000000	74,577817
931,000000	74,594753
930,000000	74,617455
929,000000	74,643004
928,000000	74,664498
927,000000	74,667574
926,000000	74,690066
925,000000	74,716072
924,000000	74,742369
923,000000	74,766060
922,000000	74,778186
921,000000	74,792074
920,000000	74,808606
919,000000	74,823372
918,000000	74,836360
917,000000	74,860536
916,000000	74,873927
915,000000	74,897751
914,000000	74,927270
913,000000	74,954868
912,000000	74,971570
911,000000	74,975459
910,000000	75,002596
909,000000	75,028501
908,000000	75,043869
907,000000	75,070262
906,000000	75,107174
905,000000	75,134557
904,000000	75,153830
903,000000	75,173960
902,000000	75,212627
901,000000	75,234936
900,000000	75,250530
899,000000	75,272893
898,000000	75,303413
897,000000	75,330761
896,000000	75,348812
895,000000	75,369242
894,000000	75,394405
893,000000	75,423583
892,000000	75,453137
891,000000	75,467548
890,000000	75,488700
889,000000	75,517739
888,000000	75,546987
887,000000	75,564958
886,000000	75,607071
885,000000	75,637455
884,000000	75,659409
883,000000	75,685910
882,000000	75,728986
881,000000	75,717303
880,000000	75,771717
879,000000	75,811408
878,000000	75,831075
877,000000	75,855481
876,000000	75,883112
875,000000	75,920146
874,000000	75,956556
873,000000	75,984465
872,000000	76,003559
871,000000	76,058232
870,000000	76,069374
869,000000	76,102239
868,000000	76,140114
867,000000	76,156307
866,000000	76,188629
865,000000	76,231334
864,000000	76,257912
863,000000	76,282510
862,000000	76,320513
861,000000	76,357744
860,000000	76,388903
859,000000	76,413070
858,000000	76,437390
857,000000	76,469422
856,000000	76,513965
855,000000	76,539561
854,000000	76,582513
853,000000	76,619630
852,000000	76,638563
851,000000	76,670707
850,000000	76,686247
849,000000	76,740891
848,000000	76,797934
847,000000	76,837412
846,000000	76,887579
845,000000	76,910172
844,000000	76,942935
843,000000	76,986279
842,000000	77,032128
841,000000	77,062382
840,000000	77,092590
839,000000	77,120719
838,000000	77,162998
837,000000	77,207082
836,000000	77,204393
835,000000	77,273681
834,000000	77,310445
833,000000	77,344290
832,000000	77,381032
831,000000	77,402080
830,000000	77,474165
829,000000	77,512793
828,000000	77,543661
827,000000	77,582146
826,000000	77,634263
825,000000	77,676599
824,000000	77,711819
823,000000	77,743848
822,000000	77,774249
821,000000	77,803992
820,000000	77,847989
819,000000	77,915061
818,000000	77,957339
817,000000	77,978203
816,000000	78,007493
815,000000	78,073395
814,000000	78,127308
813,000000	78,172106
812,000000	78,216362
811,000000	78,268434
810,000000	78,313645
809,000000	78,329361
808,000000	78,375546
807,000000	78,434090
806,000000	78,470702
805,000000	78,508553
804,000000	78,559780
803,000000	78,612612
802,000000	78,660531
801,000000	78,699849
800,000000	78,732324
799,000000	78,779810
798,000000	78,839908
797,000000	78,896700
796,000000	78,940586
795,000000	78,979129
794,000000	79,047614
793,000000	79,071835
792,000000	79,109308
791,000000	79,175273
790,000000	79,214961
789,000000	79,251654
788,000000	79,304861
787,000000	79,349183
786,000000	79,384870
785,000000	79,435931
784,000000	79,504474
783,000000	79,563693
782,000000	79,611313
781,000000	79,655982
780,000000	79,711044
779,000000	79,767616
778,000000	79,800916
777,000000	79,851719
776,000000	79,909321
775,000000	79,948589
774,000000	79,978746
773,000000	80,038935
772,000000	80,090793
771,000000	80,145688
770,000000	80,212557
769,000000	80,245978
768,000000	80,300068
767,000000	80,352881
766,000000	80,398916
765,000000	80,443003
764,000000	80,509142
763,000000	80,561159
762,000000	80,608945
761,000000	80,663536
760,000000	80,722759
759,000000	80,763504
758,000000	80,801140
757,000000	80,846163
756,000000	80,898959
755,000000	80,957656
754,000000	81,018248
753,000000	81,063768
752,000000	81,113961
751,000000	81,169419
750,000000	81,223106
749,000000	81,265284
748,000000	81,327301
747,000000	81,370932
746,000000	81,416738
745,000000	81,461526
744,000000	81,497823
743,000000	81,557310
742,000000	81,613047
741,000000	81,670089
740,000000	81,728681
739,000000	81,786867
738,000000	81,839176
737,000000	81,884880
736,000000	81,935569
735,000000	81,982710
734,000000	82,022175
733,000000	82,068020
732,000000	82,114041
731,000000	82,174808
730,000000	82,231870
729,000000	82,276925
728,000000	82,321114
727,000000	82,370545
726,000000	82,423723
725,000000	82,475569
724,000000	82,529879
723,000000	82,597906
722,000000	82,626070
721,000000	82,665719
720,000000	82,711429
719,000000	82,756232
718,000000	82,793995
717,000000	82,842545
716,000000	82,902267
715,000000	82,942780
714,000000	82,981492
713,000000	83,044765
712,000000	83,088429
711,000000	83,126819
710,000000	83,175679
709,000000	83,233532
708,000000	83,291573
707,000000	83,330022
706,000000	83,372122
705,000000	83,403462
704,000000	83,445375
703,000000	83,502971
702,000000	83,530657
701,000000	83,569029
700,000000	83,618439
699,000000	83,672234
698,000000	83,722298
697,000000	83,759411
696,000000	83,810901
695,000000	83,856015
694,000000	83,894245
693,000000	83,932131
692,000000	83,981606
691,000000	84,027604
690,000000	84,069955
689,000000	84,118943
688,000000	84,164838
687,000000	84,190407
686,000000	84,233017
685,000000	84,275673
684,000000	84,324893
683,000000	84,373443
682,000000	84,411763
681,000000	84,448206
680,000000	84,499178
679,000000	84,543402
678,000000	84,589491
677,000000	84,646466
676,000000	84,697012
675,000000	84,733825
674,000000	84,769474
673,000000	84,814625
672,000000	84,867221
671,000000	84,895347
670,000000	84,927365
669,000000	84,967544
668,000000	85,003491
667,000000	85,030919
666,000000	85,060575
665,000000	85,090582
664,000000	85,118553
663,000000	85,132924
662,000000	85,134041
661,000000	85,144892
660,000000	85,149998
659,000000	85,149564
658,000000	85,141450
657,000000	85,131228
656,000000	85,133138
655,000000	85,147853
654,000000	85,168326
653,000000	85,189129
652,000000	85,209809
651,000000	85,231964
650,000000	85,243093
649,000000	85,243058
648,000000	85,268948
647,000000	85,295413
646,000000	85,281816
645,000000	85,304852
644,000000	85,302442
643,000000	85,303401
642,000000	85,307739
641,000000	85,307719
640,000000	85,300832
639,000000	85,302633
638,000000	85,299907
637,000000	85,286035
636,000000	85,265747
635,000000	85,273420
634,000000	85,252956
633,000000	85,238784
632,000000	85,210368
631,000000	85,163438
630,000000	85,133320
629,000000	85,104269
628,000000	85,076642
627,000000	85,031490
626,000000	84,967318
625,000000	84,903120
624,000000	84,835244
623,000000	84,763033
622,000000	84,682862
621,000000	84,593005
620,000000	84,492940
619,000000	84,373852
618,000000	84,267493
617,000000	84,134349
616,000000	83,979257
615,000000	83,821882
614,000000	83,637289
613,000000	83,445355
612,000000	83,231454
611,000000	83,008607
610,000000	82,782347
609,000000	82,492656
608,000000	82,215733
607,000000	81,921169
606,000000	81,612977
605,000000	81,286215
604,000000	80,897854
603,000000	80,524729
602,000000	80,119519
601,000000	79,690768
600,000000	79,240673
599,000000	78,753735
598,000000	78,236115
597,000000	77,714431
596,000000	77,166771
595,000000	76,588759
594,000000	75,994121
593,000000	75,395391
592,000000	74,748734
591,000000	74,083220
590,000000	73,408598
589,000000	72,723613
588,000000	72,035443
587,000000	71,300815
586,000000	70,564703
585,000000	69,816528
584,000000	69,034966
583,000000	68,251773
582,000000	67,443365
581,000000	66,629445
580,000000	65,813142
579,000000	64,991285
578,000000	64,162084
577,000000	63,340784
576,000000	62,526525
575,000000	61,715107
574,000000	60,902703
573,000000	60,083448
572,000000	59,286363
571,000000	58,504625
570,000000	57,719515
569,000000	56,929617
568,000000	56,155859
567,000000	55,352292
566,000000	54,569459
565,000000	53,782519
564,000000	52,998159
563,000000	52,246880
562,000000	51,496137
561,000000	50,775857
560,000000	50,060183
559,000000	49,354887
558,000000	48,674858
557,000000	47,986845
556,000000	47,320404
555,000000	46,661183
554,000000	46,009714
553,000000	45,371359
552,000000	44,754461
551,000000	44,137304
550,000000	43,502784
549,000000	42,888617
548,000000	42,299527
547,000000	41,737130
546,000000	41,168274
545,000000	40,618238
544,000000	40,075803
543,000000	39,542314
542,000000	39,046108
541,000000	38,573510
540,000000	38,103343
539,000000	37,636267
538,000000	37,180740
537,000000	36,750978
536,000000	36,298677
535,000000	35,872568
534,000000	35,452036
533,000000	35,039614
532,000000	34,651074
531,000000	34,267502
530,000000	33,894697
529,000000	33,540569
528,000000	33,199556
527,000000	32,860594
526,000000	32,525294
525,000000	32,210556
524,000000	31,917009
523,000000	31,636512
522,000000	31,359301
521,000000	31,084834
520,000000	30,815288
519,000000	30,565175
518,000000	30,320563
517,000000	30,070114
516,000000	29,836779
515,000000	29,612878
514,000000	29,410699
513,000000	29,215405
512,000000	29,023180
511,000000	28,860101
510,000000	28,696097
509,000000	28,544944
508,000000	28,406746
507,000000	28,281623
506,000000	28,171052
505,000000	28,060129
504,000000	27,960603
503,000000	27,872524
502,000000	27,794025
501,000000	27,722184
500,000000	27,673299
499,000000	27,637411
498,000000	27,605923
497,000000	27,580043
496,000000	27,565766
495,000000	27,560184
494,000000	27,577419
493,000000	27,594220
492,000000	27,621769
491,000000	27,677414
490,000000	27,737248
489,000000	27,803818
488,000000	27,876101
487,000000	27,963436
486,000000	28,070326
485,000000	28,175741
484,000000	28,294012
483,000000	28,442060
482,000000	28,594036
481,000000	28,738785
480,000000	28,917082
479,000000	29,106880
478,000000	29,289011
477,000000	29,482257
476,000000	29,695106
475,000000	29,916007
474,000000	30,141448
473,000000	30,379836
472,000000	30,634336
471,000000	30,900937
470,000000	31,168280
469,000000	31,462672
468,000000	31,751218
467,000000	32,051238
466,000000	32,372778
465,000000	32,720046
464,000000	33,031082
463,000000	33,372665
462,000000	33,722648
461,000000	34,076783
460,000000	34,466264
459,000000	34,870258
458,000000	35,260057
457,000000	35,664808
456,000000	36,101141
455,000000	36,523981
454,000000	36,925976
453,000000	37,355975
452,000000	37,808046
451,000000	38,274832
450,000000	38,808016
449,000000	39,356973
448,000000	39,886335
447,000000	40,403257
446,000000	40,913249
445,000000	41,410111
444,000000	41,968894
443,000000	42,512229
442,000000	43,054673
441,000000	43,596523
440,000000	44,131533
439,000000	44,666492
438,000000	45,204663
437,000000	45,787854
436,000000	46,370046
435,000000	46,930711
434,000000	47,537690
433,000000	48,122022
432,000000	48,703576
431,000000	49,285301
430,000000	49,864150
429,000000	50,432558
428,000000	50,980474
427,000000	51,518324
426,000000	52,037942
425,000000	52,576346
424,000000	53,150441
423,000000	53,686675
422,000000	54,158046
421,000000	54,672614
420,000000	55,176384
419,000000	55,655222
418,000000	56,146128
417,000000	56,689304
416,000000	57,167973
415,000000	57,646619
414,000000	58,139755
413,000000	58,631482
412,000000	59,025161
411,000000	59,403137
410,000000	59,783764
409,000000	60,177881
408,000000	60,588086
407,000000	60,987287
406,000000	61,237398
405,000000	61,548445
404,000000	61,841440
403,000000	62,049191
402,000000	62,325804
401,000000	62,501871
400,000000	62,291045
399,000000	61,310844
398,000000	61,677206
397,000000	61,658886
396,000000	61,846680
395,000000	62,252943
394,000000	62,458653
393,000000	62,426271
392,000000	62,577036
391,000000	62,064829
390,000000	61,929645
389,000000	62,035815
388,000000	62,128520
387,000000	61,928563
386,000000	62,028605
385,000000	61,664871
384,000000	61,530551
383,000000	61,554743
382,000000	61,118940
381,000000	61,103514
380,000000	61,260160
379,000000	61,375144
378,000000	61,408724
377,000000	61,430889
376,000000	61,607040
375,000000	61,731566
374,000000	61,763417
373,000000	61,690840
372,000000	61,538129
371,000000	61,496760
370,000000	61,503702
369,000000	61,565838
368,000000	61,593223
367,000000	61,412835
366,000000	60,425836
365,000000	59,995009
364,000000	59,647540
363,000000	59,184847
362,000000	58,664160
361,000000	57,938060
360,000000	57,285365
359,000000	56,467361
358,000000	55,503862
357,000000	54,794367
356,000000	53,922265
355,000000	52,866262
354,000000	51,883757
353,000000	50,821393
352,000000	49,395917
351,000000	48,250817
350,000000	47,018284
349,000000	45,890750
348,000000	44,698415
347,000000	43,197841
346,000000	41,851421
345,000000	40,398821
344,000000	38,990310
343,000000	37,539848
342,000000	35,933753
341,000000	34,373483
340,000000	32,702073
339,000000	31,083263
338,000000	29,480002
337,000000	27,807679
336,000000	25,904220
335,000000	24,043569
334,000000	22,214485
333,000000	20,470572
332,000000	18,792812
331,000000	17,026676
330,000000	15,226247
329,000000	13,530887
328,000000	11,901189
327,000000	10,316474
326,000000	8,776752
325,000000	7,405880
324,000000	6,165353
323,000000	5,058636
322,000000	4,070188
321,000000	3,179459
320,000000	2,329622
319,000000	1,588370
318,000000	1,004556
317,000000	0,552875
316,000000	0,202433
315,000000	0,030827
314,000000	0,011394
313,000000	0,011130
312,000000	0,010763
311,000000	0,010167
310,000000	0,010061
309,000000	0,009690
308,000000	0,009885
307,000000	0,010015
306,000000	0,009822
305,000000	0,009666
304,000000	0,009196
303,000000	0,009048
302,000000	0,009003
301,000000	0,008987
300,000000	0,009038
299,000000	0,008787
298,000000	0,008494
297,000000	0,008341
296,000000	0,008336
295,000000	0,008407
294,000000	0,008525
293,000000	0,008405
292,000000	0,008406
291,000000	0,008443
290,000000	0,008399
289,000000	0,008462
288,000000	0,008135
287,000000	0,008208
286,000000	0,008258
285,000000	0,008099
284,000000	0,008514
283,000000	0,008480
282,000000	0,008422
281,000000	0,008334
280,000000	0,008154
279,000000	0,007817
278,000000	0,007910
277,000000	0,007968
276,000000	0,007750
275,000000	0,007274
274,000000	0,007103
273,000000	0,007240
272,000000	0,006918
271,000000	0,006649
270,000000	0,006660
269,000000	0,006667
268,000000	0,006191
267,000000	0,005936
266,000000	0,005797
265,000000	0,005689
264,000000	0,005562
263,000000	0,005456
262,000000	0,005221
261,000000	0,005025
260,000000	0,004945
259,000000	0,004955
258,000000	0,004650
257,000000	0,004528
256,000000	0,004424
255,000000	0,004377
254,000000	0,004365
253,000000	0,004126
252,000000	0,004108
251,000000	0,004027
250,000000	0,003892
249,000000	0,003786
248,000000	0,003861
247,000000	0,003705
246,000000	0,003585
245,000000	0,003465
244,000000	0,003370
243,000000	0,003410
242,000000	0,003405
241,000000	0,003317
240,000000	0,003297
239,000000	0,003304
238,000000	0,003131
237,000000	0,003210
236,000000	0,003264
235,000000	0,003211
234,000000	0,003124
233,000000	0,003155
232,000000	0,003093
231,000000	0,003167
230,000000	0,003333
229,000000	0,003469
228,000000	0,003456
227,000000	0,003457
226,000000	0,003501
225,000000	0,003494
224,000000	0,003515
223,000000	0,003640
222,000000	0,003786
221,000000	0,003885
220,000000	0,003822
219,000000	0,003831
218,000000	0,004025
217,000000	0,004096
216,000000	0,004086
215,000000	0,004249
214,000000	0,004488
213,000000	0,004695
212,000000	0,004784
211,000000	0,004894
210,000000	0,005236
209,000000	0,005622
208,000000	0,005879
207,000000	0,005858
206,000000	0,006152
205,000000	0,006690
204,000000	0,006936
203,000000	0,007029
202,000000	0,007628
201,000000	0,008644
200,000000	0,008910
