PE UV       SUBTECH     SPECTRUM    ASCII       PEDS        4.00        
   -1
red45.asc
24/07/02
10:24:32.00
24/07/02
10:24:32.00
student

200,000000
1
Lambda 365
365K7092207
  / Unknown

480
1
0,5
0
0
Both on
1
1
1
None
0
0
0
0
 
 
0
0
0
0
0
 
 
 
0
 
0
400
0
 
0
 
 
 
0
0
0
 
0
 
 
 
0
 
 
0
0
0
0
0
 
 
 
 
0
0


0
0
#HDR
-1
-1
#GR
nm
%T
1.0
0.0
1100,000000
-1,000000
901
8
82,991242
0,003092
#DATA
1100,000000	70,860234
1099,000000	70,891115
1098,000000	70,882478
1097,000000	70,860650
1096,000000	70,851483
1095,000000	70,878571
1094,000000	70,845572
1093,000000	70,841925
1092,000000	70,848149
1091,000000	70,852673
1090,000000	70,850404
1089,000000	70,825612
1088,000000	70,844842
1087,000000	70,826695
1086,000000	70,785683
1085,000000	70,792063
1084,000000	70,791064
1083,000000	70,789132
1082,000000	70,791570
1081,000000	70,786707
1080,000000	70,758302
1079,000000	70,741094
1078,000000	70,756049
1077,000000	70,747749
1076,000000	70,723118
1075,000000	70,710854
1074,000000	70,701868
1073,000000	70,697682
1072,000000	70,710816
1071,000000	70,723368
1070,000000	70,712787
1069,000000	70,690441
1068,000000	70,702528
1067,000000	70,705728
1066,000000	70,698523
1065,000000	70,688483
1064,000000	70,672476
1063,000000	70,672556
1062,000000	70,663146
1061,000000	70,651361
1060,000000	70,646934
1059,000000	70,644946
1058,000000	70,655802
1057,000000	70,668017
1056,000000	70,680458
1055,000000	70,689265
1054,000000	70,676034
1053,000000	70,652421
1052,000000	70,640794
1051,000000	70,634553
1050,000000	70,631878
1049,000000	70,651991
1048,000000	70,645353
1047,000000	70,637059
1046,000000	70,632230
1045,000000	70,627495
1044,000000	70,606200
1043,000000	70,614756
1042,000000	70,611998
1041,000000	70,612286
1040,000000	70,619310
1039,000000	70,615185
1038,000000	70,602599
1037,000000	70,596286
1036,000000	70,601359
1035,000000	70,612335
1034,000000	70,611156
1033,000000	70,606405
1032,000000	70,603397
1031,000000	70,602079
1030,000000	70,603012
1029,000000	70,607438
1028,000000	70,602258
1027,000000	70,607107
1026,000000	70,603476
1025,000000	70,593464
1024,000000	70,595435
1023,000000	70,593518
1022,000000	70,591646
1021,000000	70,587392
1020,000000	70,581491
1019,000000	70,577551
1018,000000	70,594006
1017,000000	70,584053
1016,000000	70,577652
1015,000000	70,575715
1014,000000	70,566218
1013,000000	70,571087
1012,000000	70,572395
1011,000000	70,569507
1010,000000	70,564178
1009,000000	70,560551
1008,000000	70,574554
1007,000000	70,572884
1006,000000	70,573985
1005,000000	70,580220
1004,000000	70,586193
1003,000000	70,571311
1002,000000	70,571014
1001,000000	70,583559
1000,000000	70,591023
999,000000	70,579416
998,000000	70,578554
997,000000	70,567900
996,000000	70,567993
995,000000	70,575206
994,000000	70,580606
993,000000	70,575663
992,000000	70,575567
991,000000	70,580519
990,000000	70,587643
989,000000	70,591179
988,000000	70,577422
987,000000	70,585348
986,000000	70,591110
985,000000	70,588723
984,000000	70,580680
983,000000	70,584969
982,000000	70,577286
981,000000	70,579033
980,000000	70,580924
979,000000	70,580795
978,000000	70,597016
977,000000	70,606075
976,000000	70,601044
975,000000	70,595061
974,000000	70,596307
973,000000	70,603006
972,000000	70,612136
971,000000	70,620405
970,000000	70,621846
969,000000	70,619355
968,000000	70,627461
967,000000	70,633896
966,000000	70,642076
965,000000	70,648333
964,000000	70,653587
963,000000	70,663505
962,000000	70,664572
961,000000	70,666701
960,000000	70,667776
959,000000	70,666637
958,000000	70,663842
957,000000	70,689677
956,000000	70,693354
955,000000	70,694723
954,000000	70,696766
953,000000	70,692979
952,000000	70,716917
951,000000	70,708910
950,000000	70,714450
949,000000	70,728354
948,000000	70,722593
947,000000	70,733756
946,000000	70,741008
945,000000	70,753495
944,000000	70,769766
943,000000	70,782301
942,000000	70,775906
941,000000	70,783678
940,000000	70,783655
939,000000	70,788169
938,000000	70,812111
937,000000	70,805562
936,000000	70,817414
935,000000	70,824037
934,000000	70,828036
933,000000	70,837298
932,000000	70,848641
931,000000	70,851028
930,000000	70,866556
929,000000	70,884898
928,000000	70,891536
927,000000	70,883038
926,000000	70,891559
925,000000	70,905064
924,000000	70,919195
923,000000	70,930356
922,000000	70,933328
921,000000	70,934291
920,000000	70,942161
919,000000	70,950468
918,000000	70,956529
917,000000	70,972492
916,000000	70,985243
915,000000	70,989770
914,000000	70,998669
913,000000	71,017091
912,000000	71,032087
911,000000	71,028470
910,000000	71,042788
909,000000	71,050408
908,000000	71,046787
907,000000	71,066317
906,000000	71,094321
905,000000	71,103653
904,000000	71,115341
903,000000	71,137721
902,000000	71,160096
901,000000	71,158791
900,000000	71,167654
899,000000	71,186746
898,000000	71,206767
897,000000	71,209807
896,000000	71,231829
895,000000	71,239860
894,000000	71,249097
893,000000	71,265097
892,000000	71,284760
891,000000	71,290390
890,000000	71,304177
889,000000	71,324498
888,000000	71,340074
887,000000	71,336601
886,000000	71,372112
885,000000	71,392074
884,000000	71,396141
883,000000	71,401761
882,000000	71,429874
881,000000	71,414814
880,000000	71,450003
879,000000	71,482286
878,000000	71,500156
877,000000	71,510078
876,000000	71,519126
875,000000	71,540628
874,000000	71,564567
873,000000	71,586905
872,000000	71,608068
871,000000	71,645841
870,000000	71,645347
869,000000	71,661730
868,000000	71,687906
867,000000	71,703766
866,000000	71,710898
865,000000	71,748783
864,000000	71,774698
863,000000	71,788629
862,000000	71,801086
861,000000	71,827688
860,000000	71,857617
859,000000	71,871260
858,000000	71,888160
857,000000	71,924933
856,000000	71,970101
855,000000	71,978365
854,000000	72,000798
853,000000	72,015554
852,000000	72,017717
851,000000	72,065884
850,000000	72,071790
849,000000	72,107290
848,000000	72,146496
847,000000	72,171863
846,000000	72,198252
845,000000	72,230111
844,000000	72,256323
843,000000	72,283063
842,000000	72,314159
841,000000	72,348330
840,000000	72,392250
839,000000	72,419968
838,000000	72,451890
837,000000	72,485029
836,000000	72,485381
835,000000	72,531389
834,000000	72,561148
833,000000	72,608361
832,000000	72,663796
831,000000	72,675891
830,000000	72,723930
829,000000	72,742847
828,000000	72,772639
827,000000	72,816012
826,000000	72,847026
825,000000	72,885920
824,000000	72,930444
823,000000	72,960779
822,000000	72,982888
821,000000	73,018725
820,000000	73,077862
819,000000	73,130230
818,000000	73,168607
817,000000	73,199693
816,000000	73,236336
815,000000	73,275169
814,000000	73,314284
813,000000	73,352301
812,000000	73,394951
811,000000	73,449514
810,000000	73,513673
809,000000	73,529563
808,000000	73,570191
807,000000	73,622841
806,000000	73,656889
805,000000	73,702057
804,000000	73,753491
803,000000	73,805096
802,000000	73,852543
801,000000	73,894259
800,000000	73,936436
799,000000	73,995744
798,000000	74,053451
797,000000	74,103495
796,000000	74,145679
795,000000	74,188485
794,000000	74,239398
793,000000	74,265671
792,000000	74,307141
791,000000	74,373862
790,000000	74,428571
789,000000	74,447197
788,000000	74,506567
787,000000	74,558169
786,000000	74,593715
785,000000	74,643277
784,000000	74,710064
783,000000	74,760908
782,000000	74,807855
781,000000	74,855912
780,000000	74,905831
779,000000	74,959387
778,000000	75,009545
777,000000	75,051575
776,000000	75,089693
775,000000	75,134939
774,000000	75,220344
773,000000	75,264477
772,000000	75,332048
771,000000	75,393105
770,000000	75,420223
769,000000	75,481213
768,000000	75,527260
767,000000	75,578345
766,000000	75,627486
765,000000	75,675027
764,000000	75,748418
763,000000	75,790676
762,000000	75,840482
761,000000	75,902078
760,000000	75,967759
759,000000	76,015208
758,000000	76,051840
757,000000	76,106476
756,000000	76,156898
755,000000	76,200657
754,000000	76,255810
753,000000	76,314910
752,000000	76,357173
751,000000	76,408415
750,000000	76,468680
749,000000	76,521431
748,000000	76,568814
747,000000	76,623673
746,000000	76,679287
745,000000	76,731257
744,000000	76,776815
743,000000	76,816778
742,000000	76,882894
741,000000	76,946544
740,000000	77,004754
739,000000	77,063105
738,000000	77,134851
737,000000	77,177331
736,000000	77,237872
735,000000	77,288814
734,000000	77,318414
733,000000	77,381960
732,000000	77,429728
731,000000	77,483737
730,000000	77,542318
729,000000	77,601941
728,000000	77,659055
727,000000	77,717847
726,000000	77,764040
725,000000	77,811528
724,000000	77,867100
723,000000	77,928631
722,000000	77,958121
721,000000	77,996450
720,000000	78,048523
719,000000	78,108007
718,000000	78,162677
717,000000	78,219698
716,000000	78,280197
715,000000	78,328976
714,000000	78,374961
713,000000	78,432762
712,000000	78,488902
711,000000	78,529375
710,000000	78,587710
709,000000	78,655614
708,000000	78,717443
707,000000	78,770292
706,000000	78,818313
705,000000	78,862967
704,000000	78,924278
703,000000	79,005399
702,000000	79,063863
701,000000	79,111048
700,000000	79,163955
699,000000	79,224536
698,000000	79,289777
697,000000	79,351300
696,000000	79,409309
695,000000	79,480780
694,000000	79,549120
693,000000	79,613388
692,000000	79,687470
691,000000	79,747446
690,000000	79,810639
689,000000	79,886883
688,000000	79,969906
687,000000	80,046071
686,000000	80,133401
685,000000	80,217289
684,000000	80,309677
683,000000	80,411454
682,000000	80,519500
681,000000	80,635577
680,000000	80,759432
679,000000	80,898635
678,000000	81,041497
677,000000	81,179759
676,000000	81,340674
675,000000	81,501414
674,000000	81,673080
673,000000	81,865716
672,000000	82,075256
671,000000	82,266906
670,000000	82,451093
669,000000	82,631118
668,000000	82,790429
667,000000	82,912759
666,000000	82,979350
665,000000	82,991242
664,000000	82,934789
663,000000	82,820555
662,000000	82,653596
661,000000	82,431693
660,000000	82,203284
659,000000	81,939545
658,000000	81,683667
657,000000	81,444403
656,000000	81,178691
655,000000	80,905057
654,000000	80,874039
653,000000	80,910939
652,000000	80,937646
651,000000	80,957334
650,000000	80,977787
649,000000	80,977898
648,000000	80,978415
647,000000	80,978275
646,000000	80,969731
645,000000	80,972407
644,000000	80,963818
643,000000	80,954603
642,000000	80,942356
641,000000	80,926182
640,000000	80,932939
639,000000	80,916997
638,000000	80,896251
637,000000	80,877939
636,000000	80,865075
635,000000	80,854233
634,000000	80,831221
633,000000	80,797244
632,000000	80,755459
631,000000	80,706726
630,000000	80,646624
629,000000	80,626124
628,000000	80,584412
627,000000	80,519434
626,000000	80,441454
625,000000	80,371142
624,000000	80,302345
623,000000	80,208447
622,000000	80,102899
621,000000	79,997778
620,000000	79,901230
619,000000	79,779016
618,000000	79,646136
617,000000	79,477371
616,000000	79,300019
615,000000	79,149573
614,000000	78,943472
613,000000	78,726210
612,000000	78,503503
611,000000	78,269811
610,000000	78,014030
609,000000	77,711686
608,000000	77,416174
607,000000	77,103206
606,000000	76,777486
605,000000	76,434774
604,000000	76,035437
603,000000	75,623375
602,000000	75,200638
601,000000	74,754247
600,000000	74,277478
599,000000	73,774390
598,000000	73,264051
597,000000	72,701855
596,000000	72,116489
595,000000	71,515631
594,000000	70,885866
593,000000	70,244134
592,000000	69,580081
591,000000	68,907153
590,000000	68,220504
589,000000	67,508033
588,000000	66,804177
587,000000	66,045284
586,000000	65,288889
585,000000	64,514149
584,000000	63,688809
583,000000	62,880399
582,000000	62,048014
581,000000	61,229346
580,000000	60,406015
579,000000	59,559485
578,000000	58,719835
577,000000	57,874804
576,000000	57,058327
575,000000	56,251410
574,000000	55,441314
573,000000	54,634401
572,000000	53,841717
571,000000	53,052179
570,000000	52,258273
569,000000	51,460730
568,000000	50,668595
567,000000	49,897141
566,000000	49,110395
565,000000	48,324299
564,000000	47,549486
563,000000	46,791234
562,000000	46,055297
561,000000	45,347631
560,000000	44,634761
559,000000	43,928081
558,000000	43,253987
557,000000	42,584771
556,000000	41,937837
555,000000	41,285129
554,000000	40,643731
553,000000	40,032229
552,000000	39,412563
551,000000	38,797030
550,000000	38,171309
549,000000	37,575498
548,000000	37,008233
547,000000	36,436777
546,000000	35,907105
545,000000	35,370101
544,000000	34,850682
543,000000	34,357034
542,000000	33,856910
541,000000	33,396523
540,000000	32,944099
539,000000	32,501149
538,000000	32,067957
537,000000	31,641177
536,000000	31,198817
535,000000	30,795563
534,000000	30,397426
533,000000	30,001920
532,000000	29,625802
531,000000	29,249001
530,000000	28,892311
529,000000	28,554813
528,000000	28,225126
527,000000	27,891718
526,000000	27,589089
525,000000	27,285432
524,000000	27,001865
523,000000	26,729574
522,000000	26,454534
521,000000	26,183768
520,000000	25,925762
519,000000	25,702093
518,000000	25,475493
517,000000	25,223358
516,000000	25,010848
515,000000	24,801437
514,000000	24,610915
513,000000	24,429636
512,000000	24,252863
511,000000	24,092510
510,000000	23,938722
509,000000	23,795240
508,000000	23,664262
507,000000	23,539560
506,000000	23,404497
505,000000	23,321105
504,000000	23,234524
503,000000	23,161183
502,000000	23,099623
501,000000	23,032841
500,000000	22,981665
499,000000	22,920048
498,000000	22,887344
497,000000	22,881172
496,000000	22,876218
495,000000	22,880356
494,000000	22,900063
493,000000	22,918406
492,000000	22,945920
491,000000	22,999052
490,000000	23,067839
489,000000	23,146437
488,000000	23,225567
487,000000	23,313478
486,000000	23,419498
485,000000	23,542813
484,000000	23,661170
483,000000	23,812262
482,000000	23,983775
481,000000	24,160123
480,000000	24,338378
479,000000	24,538228
478,000000	24,734732
477,000000	24,940861
476,000000	25,158579
475,000000	25,368336
474,000000	25,593461
473,000000	25,830802
472,000000	26,066097
471,000000	26,293814
470,000000	26,519365
469,000000	26,752356
468,000000	26,980641
467,000000	27,224296
466,000000	27,495040
465,000000	27,797925
464,000000	28,034961
463,000000	28,316799
462,000000	28,620168
461,000000	28,927885
460,000000	29,236748
459,000000	29,582576
458,000000	29,932451
457,000000	30,298255
456,000000	30,681933
455,000000	31,037592
454,000000	31,421356
453,000000	31,799748
452,000000	32,205755
451,000000	32,677605
450,000000	33,193372
449,000000	33,689209
448,000000	34,156285
447,000000	34,637823
446,000000	35,159260
445,000000	35,701485
444,000000	36,211108
443,000000	36,749619
442,000000	37,268983
441,000000	37,781138
440,000000	38,320104
439,000000	38,812975
438,000000	39,362129
437,000000	39,939853
436,000000	40,506354
435,000000	41,050402
434,000000	41,629204
433,000000	42,218433
432,000000	42,757380
431,000000	43,352912
430,000000	43,975049
429,000000	44,506980
428,000000	45,079426
427,000000	45,606065
426,000000	46,174706
425,000000	46,724474
424,000000	47,217108
423,000000	47,785349
422,000000	48,296041
421,000000	48,841127
420,000000	49,397070
419,000000	49,936377
418,000000	50,444704
417,000000	51,023808
416,000000	51,586018
415,000000	52,144263
414,000000	52,685379
413,000000	53,189876
412,000000	53,659497
411,000000	54,130262
410,000000	54,523393
409,000000	54,856339
408,000000	55,176817
407,000000	55,536281
406,000000	55,803245
405,000000	56,032160
404,000000	56,269736
403,000000	56,528712
402,000000	56,702199
401,000000	56,875829
400,000000	56,770570
399,000000	56,268989
398,000000	56,600778
397,000000	56,251810
396,000000	56,475529
395,000000	56,929341
394,000000	57,336717
393,000000	57,486968
392,000000	57,177088
391,000000	56,930557
390,000000	56,731399
389,000000	56,907877
388,000000	57,154990
387,000000	56,707884
386,000000	56,700346
385,000000	56,441681
384,000000	56,240047
383,000000	56,106566
382,000000	55,854967
381,000000	56,200969
380,000000	56,382816
379,000000	56,324753
378,000000	56,170834
377,000000	56,257458
376,000000	56,489197
375,000000	56,474156
374,000000	56,494873
373,000000	56,638504
372,000000	56,820687
371,000000	56,803773
370,000000	56,789366
369,000000	56,557005
368,000000	56,143564
367,000000	55,791936
366,000000	55,182916
365,000000	54,978635
364,000000	54,643878
363,000000	53,913532
362,000000	52,778205
361,000000	52,714877
360,000000	52,146264
359,000000	51,287346
358,000000	50,281087
357,000000	49,394040
356,000000	48,355041
355,000000	47,184002
354,000000	46,245223
353,000000	45,373460
352,000000	44,165203
351,000000	43,059228
350,000000	41,778503
349,000000	40,455565
348,000000	39,143513
347,000000	37,835444
346,000000	36,367819
345,000000	35,204767
344,000000	33,891146
343,000000	32,388951
342,000000	30,800954
341,000000	29,381805
340,000000	27,830757
339,000000	26,278313
338,000000	24,747664
337,000000	23,192229
336,000000	21,408818
335,000000	19,702882
334,000000	18,066255
333,000000	16,479795
332,000000	14,870497
331,000000	13,071339
330,000000	11,574033
329,000000	10,182275
328,000000	8,847095
327,000000	7,547850
326,000000	6,279534
325,000000	4,966548
324,000000	4,029142
323,000000	3,164514
322,000000	2,346683
321,000000	1,692589
320,000000	1,071692
319,000000	0,632195
318,000000	0,247238
317,000000	0,012074
316,000000	0,011595
315,000000	0,011139
314,000000	0,011095
313,000000	0,011196
312,000000	0,011116
311,000000	0,010699
310,000000	0,010172
309,000000	0,010031
308,000000	0,009904
307,000000	0,009797
306,000000	0,009591
305,000000	0,008974
304,000000	0,009254
303,000000	0,009367
302,000000	0,009126
301,000000	0,008691
300,000000	0,008462
299,000000	0,008584
298,000000	0,008733
297,000000	0,008623
296,000000	0,008418
295,000000	0,008435
294,000000	0,008631
293,000000	0,008480
292,000000	0,008500
291,000000	0,008545
290,000000	0,008395
289,000000	0,008152
288,000000	0,008168
287,000000	0,008078
286,000000	0,008200
285,000000	0,008538
284,000000	0,008054
283,000000	0,008136
282,000000	0,008015
281,000000	0,007958
280,000000	0,008130
279,000000	0,007736
278,000000	0,007861
277,000000	0,007634
276,000000	0,007343
275,000000	0,007264
274,000000	0,007020
273,000000	0,007102
272,000000	0,007009
271,000000	0,006873
270,000000	0,006694
269,000000	0,006236
268,000000	0,006192
267,000000	0,005971
266,000000	0,005794
265,000000	0,005732
264,000000	0,005732
263,000000	0,005497
262,000000	0,005435
261,000000	0,005299
260,000000	0,005077
259,000000	0,004850
258,000000	0,004748
257,000000	0,004498
256,000000	0,004489
255,000000	0,004437
254,000000	0,004186
253,000000	0,004176
252,000000	0,004076
251,000000	0,004017
250,000000	0,003948
249,000000	0,003850
248,000000	0,003762
247,000000	0,003707
246,000000	0,003542
245,000000	0,003448
244,000000	0,003447
243,000000	0,003381
242,000000	0,003345
241,000000	0,003252
240,000000	0,003196
239,000000	0,003185
238,000000	0,003146
237,000000	0,003281
236,000000	0,003220
235,000000	0,003180
234,000000	0,003192
233,000000	0,003173
232,000000	0,003092
231,000000	0,003175
230,000000	0,003211
229,000000	0,003254
228,000000	0,003403
227,000000	0,003320
226,000000	0,003355
225,000000	0,003435
224,000000	0,003488
223,000000	0,003500
222,000000	0,003705
221,000000	0,003816
220,000000	0,003855
219,000000	0,003891
218,000000	0,003971
217,000000	0,004052
216,000000	0,004262
215,000000	0,004292
214,000000	0,004305
213,000000	0,004474
212,000000	0,004938
211,000000	0,004779
210,000000	0,005006
209,000000	0,005408
208,000000	0,005777
207,000000	0,005931
206,000000	0,006300
205,000000	0,006584
204,000000	0,006886
203,000000	0,007334
202,000000	0,008123
201,000000	0,009099
200,000000	0,009283
