PE UV       SUBTECH     SPECTRUM    ASCII       PEDS        4.00        
   -1
white45..asc
24/07/02
10:54:06.00
24/07/02
10:54:06.00
student

200,000000
1
Lambda 365
365K7092207
  / Unknown

480
1
0,5
0
0
Both on
1
1
1
None
0
0
0
0
 
 
0
0
0
0
0
 
 
 
0
 
0
400
0
 
0
 
 
 
0
0
0
 
0
 
 
 
0
 
 
0
0
0
0
0
 
 
 
 
0
0


0
0
#HDR
-1
-1
#GR
nm
%T
1.0
0.0
1100,000000
-1,000000
901
8
87,773333
0,003082
#DATA
1100,000000	87,726178
1099,000000	87,717286
1098,000000	87,714326
1097,000000	87,714378
1096,000000	87,718129
1095,000000	87,729882
1094,000000	87,694913
1093,000000	87,735557
1092,000000	87,773333
1091,000000	87,772099
1090,000000	87,732070
1089,000000	87,699493
1088,000000	87,746225
1087,000000	87,741801
1086,000000	87,710789
1085,000000	87,764848
1084,000000	87,753419
1083,000000	87,760888
1082,000000	87,756901
1081,000000	87,730560
1080,000000	87,687746
1079,000000	87,718893
1078,000000	87,755291
1077,000000	87,751506
1076,000000	87,736933
1075,000000	87,759046
1074,000000	87,747227
1073,000000	87,724655
1072,000000	87,729685
1071,000000	87,753164
1070,000000	87,771069
1069,000000	87,767296
1068,000000	87,747648
1067,000000	87,737672
1066,000000	87,730991
1065,000000	87,718122
1064,000000	87,715469
1063,000000	87,713539
1062,000000	87,703848
1061,000000	87,694188
1060,000000	87,690722
1059,000000	87,681214
1058,000000	87,692026
1057,000000	87,707656
1056,000000	87,729133
1055,000000	87,749972
1054,000000	87,731762
1053,000000	87,719815
1052,000000	87,713956
1051,000000	87,707125
1050,000000	87,700330
1049,000000	87,716595
1048,000000	87,705698
1047,000000	87,702421
1046,000000	87,702290
1045,000000	87,700461
1044,000000	87,698006
1043,000000	87,691836
1042,000000	87,695802
1041,000000	87,698374
1040,000000	87,693418
1039,000000	87,685096
1038,000000	87,663019
1037,000000	87,665872
1036,000000	87,672383
1035,000000	87,670691
1034,000000	87,663323
1033,000000	87,656703
1032,000000	87,664488
1031,000000	87,666405
1030,000000	87,657127
1029,000000	87,646988
1028,000000	87,641987
1027,000000	87,637585
1026,000000	87,629300
1025,000000	87,621618
1024,000000	87,625457
1023,000000	87,613995
1022,000000	87,608408
1021,000000	87,603616
1020,000000	87,597523
1019,000000	87,590696
1018,000000	87,597537
1017,000000	87,583990
1016,000000	87,577977
1015,000000	87,577374
1014,000000	87,565975
1013,000000	87,554733
1012,000000	87,550853
1011,000000	87,543872
1010,000000	87,536956
1009,000000	87,536799
1008,000000	87,528664
1007,000000	87,523650
1006,000000	87,512638
1005,000000	87,501964
1004,000000	87,499403
1003,000000	87,485368
1002,000000	87,480419
1001,000000	87,487036
1000,000000	87,490139
999,000000	87,476330
998,000000	87,465904
997,000000	87,457900
996,000000	87,446583
995,000000	87,436519
994,000000	87,431219
993,000000	87,421090
992,000000	87,414067
991,000000	87,410113
990,000000	87,405769
989,000000	87,396946
988,000000	87,378875
987,000000	87,384660
986,000000	87,380528
985,000000	87,367203
984,000000	87,351665
983,000000	87,345411
982,000000	87,337673
981,000000	87,331618
980,000000	87,326946
979,000000	87,320461
978,000000	87,303482
977,000000	87,287551
976,000000	87,273457
975,000000	87,266559
974,000000	87,266098
973,000000	87,261145
972,000000	87,245547
971,000000	87,237269
970,000000	87,231382
969,000000	87,225060
968,000000	87,219379
967,000000	87,213696
966,000000	87,210478
965,000000	87,201110
964,000000	87,186672
963,000000	87,178572
962,000000	87,163630
961,000000	87,159902
960,000000	87,159051
959,000000	87,152457
958,000000	87,132453
957,000000	87,125738
956,000000	87,121384
955,000000	87,117615
954,000000	87,110924
953,000000	87,097290
952,000000	87,086886
951,000000	87,087529
950,000000	87,080434
949,000000	87,061820
948,000000	87,037982
947,000000	87,032869
946,000000	87,023614
945,000000	87,023649
944,000000	87,022097
943,000000	87,001560
942,000000	86,987173
941,000000	86,982908
940,000000	86,973652
939,000000	86,963249
938,000000	86,958777
937,000000	86,945560
936,000000	86,933312
935,000000	86,925215
934,000000	86,914489
933,000000	86,896614
932,000000	86,893300
931,000000	86,889079
930,000000	86,885133
929,000000	86,880674
928,000000	86,870361
927,000000	86,831283
926,000000	86,834310
925,000000	86,832781
924,000000	86,830515
923,000000	86,831804
922,000000	86,815352
921,000000	86,799371
920,000000	86,769783
919,000000	86,749047
918,000000	86,749030
917,000000	86,743768
916,000000	86,747861
915,000000	86,729984
914,000000	86,711404
913,000000	86,706068
912,000000	86,703858
911,000000	86,684495
910,000000	86,676070
909,000000	86,657621
908,000000	86,628280
907,000000	86,624985
906,000000	86,635431
905,000000	86,634012
904,000000	86,625631
903,000000	86,614435
902,000000	86,601906
901,000000	86,593127
900,000000	86,566233
899,000000	86,552226
898,000000	86,549278
897,000000	86,520928
896,000000	86,519627
895,000000	86,520924
894,000000	86,510404
893,000000	86,490803
892,000000	86,479087
891,000000	86,466028
890,000000	86,461403
889,000000	86,456486
888,000000	86,445518
887,000000	86,426136
886,000000	86,423915
885,000000	86,412430
884,000000	86,400758
883,000000	86,393448
882,000000	86,389576
881,000000	86,350161
880,000000	86,362651
879,000000	86,351249
878,000000	86,332459
877,000000	86,348550
876,000000	86,308932
875,000000	86,309225
874,000000	86,307752
873,000000	86,298546
872,000000	86,289994
871,000000	86,305309
870,000000	86,266255
869,000000	86,244345
868,000000	86,235769
867,000000	86,223454
866,000000	86,230074
865,000000	86,236013
864,000000	86,213366
863,000000	86,192254
862,000000	86,199129
861,000000	86,196604
860,000000	86,190951
859,000000	86,179413
858,000000	86,172074
857,000000	86,174632
856,000000	86,173006
855,000000	86,140262
854,000000	86,145645
853,000000	86,145983
852,000000	86,118721
851,000000	86,125113
850,000000	86,114640
849,000000	86,124455
848,000000	86,126324
847,000000	86,109820
846,000000	86,109886
845,000000	86,098919
844,000000	86,104000
843,000000	86,108869
842,000000	86,103345
841,000000	86,090325
840,000000	86,084420
839,000000	86,097659
838,000000	86,100432
837,000000	86,079332
836,000000	86,042658
835,000000	86,082837
834,000000	86,067208
833,000000	86,062180
832,000000	86,078216
831,000000	86,068748
830,000000	86,085130
829,000000	86,058790
828,000000	86,066232
827,000000	86,097765
826,000000	86,079054
825,000000	86,086304
824,000000	86,080682
823,000000	86,081519
822,000000	86,086901
821,000000	86,082751
820,000000	86,080504
819,000000	86,104000
818,000000	86,120230
817,000000	86,115566
816,000000	86,091575
815,000000	86,109814
814,000000	86,092138
813,000000	86,106156
812,000000	86,129243
811,000000	86,114728
810,000000	86,122243
809,000000	86,124416
808,000000	86,132268
807,000000	86,139618
806,000000	86,138660
805,000000	86,145347
804,000000	86,156853
803,000000	86,172976
802,000000	86,183007
801,000000	86,181611
800,000000	86,189418
799,000000	86,197975
798,000000	86,194319
797,000000	86,201038
796,000000	86,224031
795,000000	86,223565
794,000000	86,224537
793,000000	86,224216
792,000000	86,229933
791,000000	86,244676
790,000000	86,264740
789,000000	86,271074
788,000000	86,269103
787,000000	86,260018
786,000000	86,251701
785,000000	86,258267
784,000000	86,308927
783,000000	86,317513
782,000000	86,311635
781,000000	86,311812
780,000000	86,330312
779,000000	86,333406
778,000000	86,323261
777,000000	86,328359
776,000000	86,340419
775,000000	86,342204
774,000000	86,350313
773,000000	86,359647
772,000000	86,379621
771,000000	86,396297
770,000000	86,398598
769,000000	86,407070
768,000000	86,404654
767,000000	86,416461
766,000000	86,422039
765,000000	86,414031
764,000000	86,431673
763,000000	86,447128
762,000000	86,453505
761,000000	86,464621
760,000000	86,482257
759,000000	86,487368
758,000000	86,476663
757,000000	86,487730
756,000000	86,494929
755,000000	86,495151
754,000000	86,508772
753,000000	86,528482
752,000000	86,530419
751,000000	86,526221
750,000000	86,525307
749,000000	86,533839
748,000000	86,533360
747,000000	86,548087
746,000000	86,552423
745,000000	86,552372
744,000000	86,561132
743,000000	86,548678
742,000000	86,558908
741,000000	86,568887
740,000000	86,576566
739,000000	86,583728
738,000000	86,585656
737,000000	86,580658
736,000000	86,578386
735,000000	86,577841
734,000000	86,577581
733,000000	86,579229
732,000000	86,574824
731,000000	86,571507
730,000000	86,572207
729,000000	86,576784
728,000000	86,581061
727,000000	86,583049
726,000000	86,571274
725,000000	86,558402
724,000000	86,552155
723,000000	86,553516
722,000000	86,521978
721,000000	86,499884
720,000000	86,488713
719,000000	86,477956
718,000000	86,452384
717,000000	86,435402
716,000000	86,418036
715,000000	86,388882
714,000000	86,354003
713,000000	86,322525
712,000000	86,274430
711,000000	86,232254
710,000000	86,192522
709,000000	86,154997
708,000000	86,116309
707,000000	86,057796
706,000000	85,985790
705,000000	85,919600
704,000000	85,858587
703,000000	85,793593
702,000000	85,701587
701,000000	85,613316
700,000000	85,517203
699,000000	85,417135
698,000000	85,315188
697,000000	85,208772
696,000000	85,085350
695,000000	84,957343
694,000000	84,821411
693,000000	84,678337
692,000000	84,532846
691,000000	84,377991
690,000000	84,209718
689,000000	84,033799
688,000000	83,854104
687,000000	83,673253
686,000000	83,492340
685,000000	83,296498
684,000000	83,110002
683,000000	82,921431
682,000000	82,714518
681,000000	82,525370
680,000000	82,341431
679,000000	82,171431
678,000000	81,999027
677,000000	81,817148
676,000000	81,677249
675,000000	81,523531
674,000000	81,381075
673,000000	81,271729
672,000000	81,193235
671,000000	81,087746
670,000000	81,000560
669,000000	80,915149
668,000000	80,821462
667,000000	80,706077
666,000000	80,544603
665,000000	80,347597
664,000000	80,083660
663,000000	79,768318
662,000000	79,408332
661,000000	78,997126
660,000000	78,596347
659,000000	78,185602
658,000000	77,773426
657,000000	77,369295
656,000000	76,980680
655,000000	76,611309
654,000000	76,433582
653,000000	76,332251
652,000000	76,246700
651,000000	76,167837
650,000000	76,090051
649,000000	76,020360
648,000000	75,964130
647,000000	75,912373
646,000000	75,854815
645,000000	75,829564
644,000000	75,804563
643,000000	75,787450
642,000000	75,773455
641,000000	75,760946
640,000000	75,785768
639,000000	75,808826
638,000000	75,824883
637,000000	75,844194
636,000000	75,877245
635,000000	75,926968
634,000000	75,958316
633,000000	75,991708
632,000000	76,021807
631,000000	76,045273
630,000000	76,067031
629,000000	76,122234
628,000000	76,162469
627,000000	76,183842
626,000000	76,191494
625,000000	76,198447
624,000000	76,214994
623,000000	76,234334
622,000000	76,235187
621,000000	76,222520
620,000000	76,218822
619,000000	76,213354
618,000000	76,202965
617,000000	76,180162
616,000000	76,150074
615,000000	76,123031
614,000000	76,103257
613,000000	76,065607
612,000000	76,020677
611,000000	75,979319
610,000000	75,945205
609,000000	75,891153
608,000000	75,838494
607,000000	75,786609
606,000000	75,728450
605,000000	75,658369
604,000000	75,575919
603,000000	75,513349
602,000000	75,442897
601,000000	75,371556
600,000000	75,299861
599,000000	75,214207
598,000000	75,164759
597,000000	75,090104
596,000000	75,028952
595,000000	74,995029
594,000000	74,975368
593,000000	74,973641
592,000000	74,992050
591,000000	75,046352
590,000000	75,128592
589,000000	75,220133
588,000000	75,358472
587,000000	75,522153
586,000000	75,715439
585,000000	75,933646
584,000000	76,168114
583,000000	76,415741
582,000000	76,677002
581,000000	76,948312
580,000000	77,217514
579,000000	77,477123
578,000000	77,739706
577,000000	77,975524
576,000000	78,224190
575,000000	78,468799
574,000000	78,696082
573,000000	78,915674
572,000000	79,124824
571,000000	79,252256
570,000000	79,315261
569,000000	79,348958
568,000000	79,402037
567,000000	79,696282
566,000000	79,827178
565,000000	79,985363
564,000000	80,162855
563,000000	80,201215
562,000000	80,285784
561,000000	80,384984
560,000000	80,426743
559,000000	80,415679
558,000000	80,393596
557,000000	80,364553
556,000000	80,313007
555,000000	80,245087
554,000000	80,167894
553,000000	80,082538
552,000000	79,956077
551,000000	79,841699
550,000000	79,715166
549,000000	79,589548
548,000000	79,466465
547,000000	79,319682
546,000000	79,187035
545,000000	79,065432
544,000000	78,948023
543,000000	78,834166
542,000000	78,735089
541,000000	78,643703
540,000000	78,562054
539,000000	78,483619
538,000000	78,418533
537,000000	78,393462
536,000000	78,349351
535,000000	78,361559
534,000000	78,351601
533,000000	78,331605
532,000000	78,370324
531,000000	78,402696
530,000000	78,456379
529,000000	78,524293
528,000000	78,596341
527,000000	78,665376
526,000000	78,765038
525,000000	78,864610
524,000000	78,970623
523,000000	79,079375
522,000000	79,186227
521,000000	79,297937
520,000000	79,409315
519,000000	79,526321
518,000000	79,650632
517,000000	79,771569
516,000000	79,838937
515,000000	79,979871
514,000000	80,106882
513,000000	80,227750
512,000000	80,350651
511,000000	80,462799
510,000000	80,563345
509,000000	80,695153
508,000000	80,838216
507,000000	80,969527
506,000000	81,067652
505,000000	81,209255
504,000000	81,357005
503,000000	81,482514
502,000000	81,582395
501,000000	81,677418
500,000000	81,813667
499,000000	81,930556
498,000000	82,030915
497,000000	82,121532
496,000000	82,212901
495,000000	82,325181
494,000000	82,449420
493,000000	82,557018
492,000000	82,674104
491,000000	82,831998
490,000000	82,960179
489,000000	83,121134
488,000000	83,253959
487,000000	83,391128
486,000000	83,568192
485,000000	83,745867
484,000000	83,874375
483,000000	84,044016
482,000000	84,238823
481,000000	84,435541
480,000000	84,632984
479,000000	84,798288
478,000000	84,948243
477,000000	85,099080
476,000000	85,251152
475,000000	85,379357
474,000000	85,468800
473,000000	85,540664
472,000000	85,575391
471,000000	85,577221
470,000000	85,578187
469,000000	85,514194
468,000000	85,427152
467,000000	85,334174
466,000000	85,246305
465,000000	85,170199
464,000000	85,050690
463,000000	84,970270
462,000000	84,868516
461,000000	84,728802
460,000000	84,617478
459,000000	84,585309
458,000000	84,507726
457,000000	84,434072
456,000000	84,388897
455,000000	84,266043
454,000000	84,230131
453,000000	84,191162
452,000000	84,145558
451,000000	84,110754
450,000000	84,125729
449,000000	84,168447
448,000000	84,156213
447,000000	84,142941
446,000000	84,158183
445,000000	84,159696
444,000000	84,161356
443,000000	84,174150
442,000000	84,144869
441,000000	84,094647
440,000000	84,078900
439,000000	84,072020
438,000000	84,069141
437,000000	84,080123
436,000000	84,096381
435,000000	84,100433
434,000000	84,066212
433,000000	84,113284
432,000000	84,092278
431,000000	84,088557
430,000000	84,121965
429,000000	84,153559
428,000000	84,149561
427,000000	84,138099
426,000000	84,165469
425,000000	84,195594
424,000000	84,197786
423,000000	84,219350
422,000000	84,263897
421,000000	84,291563
420,000000	84,375685
419,000000	84,477178
418,000000	84,470655
417,000000	84,655270
416,000000	84,740750
415,000000	84,808111
414,000000	84,879131
413,000000	84,951743
412,000000	85,005852
411,000000	85,027397
410,000000	85,045325
409,000000	85,034144
408,000000	84,973339
407,000000	84,932263
406,000000	84,780506
405,000000	84,653244
404,000000	84,560674
403,000000	84,472958
402,000000	84,309409
401,000000	84,151771
400,000000	83,819337
399,000000	82,847680
398,000000	83,270036
397,000000	82,934259
396,000000	82,193900
395,000000	82,447977
394,000000	82,805182
393,000000	82,823509
392,000000	82,774773
391,000000	81,998373
390,000000	81,836825
389,000000	81,933678
388,000000	82,040771
387,000000	82,082997
386,000000	81,713756
385,000000	81,323089
384,000000	81,332992
383,000000	81,447385
382,000000	80,878300
381,000000	81,236861
380,000000	81,404340
379,000000	81,334495
378,000000	81,160485
377,000000	81,177827
376,000000	81,221238
375,000000	81,350669
374,000000	81,395751
373,000000	81,322030
372,000000	81,223479
371,000000	81,357323
370,000000	81,430332
369,000000	81,571072
368,000000	81,722526
367,000000	81,671117
366,000000	81,212317
365,000000	81,088224
364,000000	81,109114
363,000000	81,107178
362,000000	80,942499
361,000000	80,809768
360,000000	80,663162
359,000000	80,518771
358,000000	80,314420
357,000000	79,979729
356,000000	79,920119
355,000000	79,509520
354,000000	79,463672
353,000000	79,493400
352,000000	78,819297
351,000000	78,387774
350,000000	78,082266
349,000000	77,708435
348,000000	77,332753
347,000000	77,073413
346,000000	76,461614
345,000000	75,858919
344,000000	75,162348
343,000000	74,441053
342,000000	73,770151
341,000000	73,047216
340,000000	72,122703
339,000000	71,273395
338,000000	70,460790
337,000000	69,555711
336,000000	68,290371
335,000000	66,905044
334,000000	65,643278
333,000000	64,357244
332,000000	62,906706
331,000000	61,256743
330,000000	59,360208
329,000000	57,588126
328,000000	55,810547
327,000000	53,930810
326,000000	51,906398
325,000000	49,796186
324,000000	47,689518
323,000000	45,557274
322,000000	43,307895
321,000000	40,893961
320,000000	38,649753
319,000000	36,267854
318,000000	33,712796
317,000000	31,096792
316,000000	28,555204
315,000000	26,092629
314,000000	23,496866
313,000000	21,145597
312,000000	18,928778
311,000000	16,763274
310,000000	14,771416
309,000000	12,928328
308,000000	11,120258
307,000000	9,424397
306,000000	7,897242
305,000000	6,538445
304,000000	5,300033
303,000000	4,258508
302,000000	3,335990
301,000000	2,473738
300,000000	1,649551
299,000000	1,164436
298,000000	0,744670
297,000000	0,382522
296,000000	0,120751
295,000000	0,008458
294,000000	0,008505
293,000000	0,008321
292,000000	0,008140
291,000000	0,008107
290,000000	0,008308
289,000000	0,008718
288,000000	0,008200
287,000000	0,008322
286,000000	0,008365
285,000000	0,007963
284,000000	0,008314
283,000000	0,008041
282,000000	0,008124
281,000000	0,008085
280,000000	0,007618
279,000000	0,007861
278,000000	0,007765
277,000000	0,007789
276,000000	0,007712
275,000000	0,007434
274,000000	0,007530
273,000000	0,007404
272,000000	0,006963
271,000000	0,006714
270,000000	0,006744
269,000000	0,006531
268,000000	0,006475
267,000000	0,006183
266,000000	0,006048
265,000000	0,005929
264,000000	0,005421
263,000000	0,005477
262,000000	0,005357
261,000000	0,005212
260,000000	0,005041
259,000000	0,004842
258,000000	0,004896
257,000000	0,004747
256,000000	0,004456
255,000000	0,004277
254,000000	0,004285
253,000000	0,004059
252,000000	0,004125
251,000000	0,004053
250,000000	0,003896
249,000000	0,003722
248,000000	0,003561
247,000000	0,003628
246,000000	0,003495
245,000000	0,003434
244,000000	0,003467
243,000000	0,003319
242,000000	0,003212
241,000000	0,003256
240,000000	0,003275
239,000000	0,003231
238,000000	0,003214
237,000000	0,003260
236,000000	0,003283
235,000000	0,003200
234,000000	0,003082
233,000000	0,003094
232,000000	0,003259
231,000000	0,003335
230,000000	0,003308
229,000000	0,003311
228,000000	0,003478
227,000000	0,003506
226,000000	0,003460
225,000000	0,003503
224,000000	0,003568
223,000000	0,003583
222,000000	0,003692
221,000000	0,003753
220,000000	0,003845
219,000000	0,003971
218,000000	0,004085
217,000000	0,004050
216,000000	0,004121
215,000000	0,004365
214,000000	0,004512
213,000000	0,004493
212,000000	0,004615
211,000000	0,004750
210,000000	0,004960
209,000000	0,005220
208,000000	0,005512
207,000000	0,005814
206,000000	0,006348
205,000000	0,006696
204,000000	0,006906
203,000000	0,007204
202,000000	0,007944
201,000000	0,008630
200,000000	0,009266
