PE UV       SUBTECH     SPECTRUM    ASCII       PEDS        4.00        
   -1
white30.asc
24/07/02
10:51:16.00
24/07/02
10:51:16.00
student

200,000000
1
Lambda 365
365K7092207
  / Unknown

480
1
0,5
0
0
Both on
1
1
1
None
0
0
0
0
 
 
0
0
0
0
0
 
 
 
0
 
0
400
0
 
0
 
 
 
0
0
0
 
0
 
 
 
0
 
 
0
0
0
0
0
 
 
 
 
0
0


0
0
#HDR
-1
-1
#GR
nm
%T
1.0
0.0
1100,000000
-1,000000
901
8
88,277255
0,003125
#DATA
1100,000000	87,208528
1099,000000	87,206122
1098,000000	87,231506
1097,000000	87,243286
1096,000000	87,232801
1095,000000	87,224729
1094,000000	87,251505
1093,000000	87,259616
1092,000000	87,291205
1091,000000	87,331828
1090,000000	87,323488
1089,000000	87,266469
1088,000000	87,301034
1087,000000	87,306853
1086,000000	87,284351
1085,000000	87,305452
1084,000000	87,313381
1083,000000	87,335842
1082,000000	87,351366
1081,000000	87,345375
1080,000000	87,312890
1079,000000	87,321515
1078,000000	87,346658
1077,000000	87,361501
1076,000000	87,359601
1075,000000	87,348165
1074,000000	87,379782
1073,000000	87,387789
1072,000000	87,390459
1071,000000	87,402740
1070,000000	87,430205
1069,000000	87,424184
1068,000000	87,412302
1067,000000	87,413496
1066,000000	87,415245
1065,000000	87,406176
1064,000000	87,421003
1063,000000	87,418164
1062,000000	87,405130
1061,000000	87,402104
1060,000000	87,417589
1059,000000	87,407118
1058,000000	87,417136
1057,000000	87,432222
1056,000000	87,450224
1055,000000	87,468322
1054,000000	87,475039
1053,000000	87,453879
1052,000000	87,462868
1051,000000	87,474282
1050,000000	87,468887
1049,000000	87,471026
1048,000000	87,472383
1047,000000	87,473886
1046,000000	87,478694
1045,000000	87,484459
1044,000000	87,477661
1043,000000	87,483076
1042,000000	87,484810
1041,000000	87,490727
1040,000000	87,500600
1039,000000	87,499503
1038,000000	87,495871
1037,000000	87,495163
1036,000000	87,499528
1035,000000	87,508992
1034,000000	87,521303
1033,000000	87,509296
1032,000000	87,515182
1031,000000	87,517288
1030,000000	87,513642
1029,000000	87,523087
1028,000000	87,518696
1027,000000	87,523513
1026,000000	87,522955
1025,000000	87,519073
1024,000000	87,526638
1023,000000	87,518154
1022,000000	87,524418
1021,000000	87,525201
1020,000000	87,520520
1019,000000	87,523474
1018,000000	87,538019
1017,000000	87,535179
1016,000000	87,534448
1015,000000	87,534138
1014,000000	87,523982
1013,000000	87,528853
1012,000000	87,535244
1011,000000	87,532147
1010,000000	87,524515
1009,000000	87,523918
1008,000000	87,538115
1007,000000	87,537273
1006,000000	87,533388
1005,000000	87,531169
1004,000000	87,531066
1003,000000	87,520603
1002,000000	87,522844
1001,000000	87,529948
1000,000000	87,536279
999,000000	87,536368
998,000000	87,522266
997,000000	87,526826
996,000000	87,522495
995,000000	87,520645
994,000000	87,530841
993,000000	87,521417
992,000000	87,521889
991,000000	87,521542
990,000000	87,519299
989,000000	87,516751
988,000000	87,518726
987,000000	87,527832
986,000000	87,522321
985,000000	87,514469
984,000000	87,513882
983,000000	87,512596
982,000000	87,516376
981,000000	87,518735
980,000000	87,520499
979,000000	87,520431
978,000000	87,511491
977,000000	87,512373
976,000000	87,511998
975,000000	87,510197
974,000000	87,508326
973,000000	87,509100
972,000000	87,502503
971,000000	87,504017
970,000000	87,505466
969,000000	87,503832
968,000000	87,504037
967,000000	87,500625
966,000000	87,505978
965,000000	87,505511
964,000000	87,499334
963,000000	87,503209
962,000000	87,487223
961,000000	87,484563
960,000000	87,492152
959,000000	87,499113
958,000000	87,488983
957,000000	87,483198
956,000000	87,482662
955,000000	87,485294
954,000000	87,486070
953,000000	87,479315
952,000000	87,487651
951,000000	87,486174
950,000000	87,490788
949,000000	87,491804
948,000000	87,471011
947,000000	87,476220
946,000000	87,476002
945,000000	87,480814
944,000000	87,488939
943,000000	87,492674
942,000000	87,481908
941,000000	87,485239
940,000000	87,482556
939,000000	87,476123
938,000000	87,473337
937,000000	87,463782
936,000000	87,468396
935,000000	87,466187
934,000000	87,464103
933,000000	87,470141
932,000000	87,456682
931,000000	87,458404
930,000000	87,462895
929,000000	87,465460
928,000000	87,462168
927,000000	87,444920
926,000000	87,443025
925,000000	87,446203
924,000000	87,454904
923,000000	87,467213
922,000000	87,468278
921,000000	87,457954
920,000000	87,447531
919,000000	87,438633
918,000000	87,435204
917,000000	87,450643
916,000000	87,447617
915,000000	87,446078
914,000000	87,444437
913,000000	87,441346
912,000000	87,439984
911,000000	87,430319
910,000000	87,437204
909,000000	87,430610
908,000000	87,410205
907,000000	87,429853
906,000000	87,443977
905,000000	87,451010
904,000000	87,449634
903,000000	87,443600
902,000000	87,442957
901,000000	87,447401
900,000000	87,432539
899,000000	87,425870
898,000000	87,430597
897,000000	87,423745
896,000000	87,430218
895,000000	87,437993
894,000000	87,435700
893,000000	87,429405
892,000000	87,438584
891,000000	87,420964
890,000000	87,440061
889,000000	87,449927
888,000000	87,438925
887,000000	87,420915
886,000000	87,447079
885,000000	87,443709
884,000000	87,432442
883,000000	87,427107
882,000000	87,434472
881,000000	87,418875
880,000000	87,435610
879,000000	87,437231
878,000000	87,431061
877,000000	87,440248
876,000000	87,412750
875,000000	87,424509
874,000000	87,439217
873,000000	87,446634
872,000000	87,446435
871,000000	87,446456
870,000000	87,423541
869,000000	87,425521
868,000000	87,431252
867,000000	87,416616
866,000000	87,441535
865,000000	87,453377
864,000000	87,447750
863,000000	87,443318
862,000000	87,452981
861,000000	87,446125
860,000000	87,458896
859,000000	87,452773
858,000000	87,450435
857,000000	87,468992
856,000000	87,477925
855,000000	87,467572
854,000000	87,474774
853,000000	87,481548
852,000000	87,473553
851,000000	87,461039
850,000000	87,459746
849,000000	87,470425
848,000000	87,479259
847,000000	87,480007
846,000000	87,483656
845,000000	87,501033
844,000000	87,509713
843,000000	87,509563
842,000000	87,504811
841,000000	87,504352
840,000000	87,520049
839,000000	87,522552
838,000000	87,524702
837,000000	87,525277
836,000000	87,503828
835,000000	87,539978
834,000000	87,539643
833,000000	87,535480
832,000000	87,541204
831,000000	87,550167
830,000000	87,567860
829,000000	87,564984
828,000000	87,572997
827,000000	87,584788
826,000000	87,565871
825,000000	87,594466
824,000000	87,608249
823,000000	87,614122
822,000000	87,616201
821,000000	87,617369
820,000000	87,625526
819,000000	87,643525
818,000000	87,660688
817,000000	87,656508
816,000000	87,616905
815,000000	87,658257
814,000000	87,656900
813,000000	87,664918
812,000000	87,678723
811,000000	87,679610
810,000000	87,709639
809,000000	87,701084
808,000000	87,703673
807,000000	87,716903
806,000000	87,727287
805,000000	87,741253
804,000000	87,728470
803,000000	87,752297
802,000000	87,771233
801,000000	87,750649
800,000000	87,758416
799,000000	87,785942
798,000000	87,795259
797,000000	87,802442
796,000000	87,815706
795,000000	87,810821
794,000000	87,829859
793,000000	87,829962
792,000000	87,840825
791,000000	87,864274
790,000000	87,857401
789,000000	87,865487
788,000000	87,884230
787,000000	87,889374
786,000000	87,882194
785,000000	87,887842
784,000000	87,936000
783,000000	87,946681
782,000000	87,942300
781,000000	87,940274
780,000000	87,952885
779,000000	87,968355
778,000000	87,956209
777,000000	87,965430
776,000000	87,985084
775,000000	87,987618
774,000000	87,986771
773,000000	88,000915
772,000000	88,015358
771,000000	88,023257
770,000000	88,025540
769,000000	88,045304
768,000000	88,055485
767,000000	88,069235
766,000000	88,075522
765,000000	88,071449
764,000000	88,081248
763,000000	88,093002
762,000000	88,098750
761,000000	88,112662
760,000000	88,134824
759,000000	88,141362
758,000000	88,141063
757,000000	88,153300
756,000000	88,163814
755,000000	88,168712
754,000000	88,175385
753,000000	88,193588
752,000000	88,194827
751,000000	88,194493
750,000000	88,196526
749,000000	88,198489
748,000000	88,216419
747,000000	88,234065
746,000000	88,241064
745,000000	88,238723
744,000000	88,233762
743,000000	88,233965
742,000000	88,237289
741,000000	88,246788
740,000000	88,257299
739,000000	88,263984
738,000000	88,272150
737,000000	88,275085
736,000000	88,274052
735,000000	88,263271
734,000000	88,248021
733,000000	88,263219
732,000000	88,268881
731,000000	88,274344
730,000000	88,277255
729,000000	88,275940
728,000000	88,271018
727,000000	88,260073
726,000000	88,251757
725,000000	88,248400
724,000000	88,243361
723,000000	88,222367
722,000000	88,212934
721,000000	88,203420
720,000000	88,189992
719,000000	88,174068
718,000000	88,159233
717,000000	88,132121
716,000000	88,118870
715,000000	88,084501
714,000000	88,043968
713,000000	88,022722
712,000000	87,979345
711,000000	87,929550
710,000000	87,885453
709,000000	87,848025
708,000000	87,811040
707,000000	87,751337
706,000000	87,682017
705,000000	87,613664
704,000000	87,545910
703,000000	87,474781
702,000000	87,391090
701,000000	87,294459
700,000000	87,197151
699,000000	87,097221
698,000000	86,990627
697,000000	86,871451
696,000000	86,747070
695,000000	86,619992
694,000000	86,476850
693,000000	86,323106
692,000000	86,180970
691,000000	86,014684
690,000000	85,840276
689,000000	85,661238
688,000000	85,471071
687,000000	85,260722
686,000000	85,061046
685,000000	84,842733
684,000000	84,637662
683,000000	84,436133
682,000000	84,217664
681,000000	83,989673
680,000000	83,763652
679,000000	83,548652
678,000000	83,333967
677,000000	83,112588
676,000000	82,910293
675,000000	82,705961
674,000000	82,505183
673,000000	82,316677
672,000000	82,140523
671,000000	81,955106
670,000000	81,775257
669,000000	81,612553
668,000000	81,454428
667,000000	81,287258
666,000000	81,096233
665,000000	80,906919
664,000000	80,692781
663,000000	80,465213
662,000000	80,228573
661,000000	79,973596
660,000000	79,733457
659,000000	79,492122
658,000000	79,249852
657,000000	79,010680
656,000000	78,781044
655,000000	78,583490
654,000000	78,455321
653,000000	78,362785
652,000000	78,280457
651,000000	78,196956
650,000000	78,133822
649,000000	78,071372
648,000000	78,026530
647,000000	77,992452
646,000000	77,954349
645,000000	77,927998
644,000000	77,904348
643,000000	77,894786
642,000000	77,893646
641,000000	77,893359
640,000000	77,906190
639,000000	77,942558
638,000000	77,967510
637,000000	77,990402
636,000000	78,024970
635,000000	78,072565
634,000000	78,114845
633,000000	78,154827
632,000000	78,193883
631,000000	78,230081
630,000000	78,255408
629,000000	78,313947
628,000000	78,351751
627,000000	78,374242
626,000000	78,390530
625,000000	78,410541
624,000000	78,439061
623,000000	78,443329
622,000000	78,444504
621,000000	78,449872
620,000000	78,455578
619,000000	78,446698
618,000000	78,449492
617,000000	78,434971
616,000000	78,411496
615,000000	78,398591
614,000000	78,370753
613,000000	78,336634
612,000000	78,300914
611,000000	78,266357
610,000000	78,232505
609,000000	78,187344
608,000000	78,147912
607,000000	78,092974
606,000000	78,043146
605,000000	78,005111
604,000000	77,934418
603,000000	77,863626
602,000000	77,799770
601,000000	77,729109
600,000000	77,653863
599,000000	77,602967
598,000000	77,560108
597,000000	77,497876
596,000000	77,435497
595,000000	77,392604
594,000000	77,386024
593,000000	77,387794
592,000000	77,415518
591,000000	77,470148
590,000000	77,548613
589,000000	77,647317
588,000000	77,795853
587,000000	77,944637
586,000000	78,126230
585,000000	78,341829
584,000000	78,580806
583,000000	78,842029
582,000000	79,084779
581,000000	79,337829
580,000000	79,605533
579,000000	79,880172
578,000000	80,129295
577,000000	80,378868
576,000000	80,634142
575,000000	80,870410
574,000000	81,075508
573,000000	81,271659
572,000000	81,479637
571,000000	81,669503
570,000000	81,843221
569,000000	82,000361
568,000000	82,135356
567,000000	82,275397
566,000000	82,396982
565,000000	82,501075
564,000000	82,587578
563,000000	82,656089
562,000000	82,713021
561,000000	82,779231
560,000000	82,802101
559,000000	82,791548
558,000000	82,784778
557,000000	82,764960
556,000000	82,730979
555,000000	82,670200
554,000000	82,596977
553,000000	82,522719
552,000000	82,400333
551,000000	82,288467
550,000000	82,173605
549,000000	82,055644
548,000000	81,927368
547,000000	81,774909
546,000000	81,653898
545,000000	81,545726
544,000000	81,450400
543,000000	81,359626
542,000000	81,248311
541,000000	81,162698
540,000000	81,085157
539,000000	81,011307
538,000000	80,950459
537,000000	80,924904
536,000000	80,894755
535,000000	80,900963
534,000000	80,898647
533,000000	80,890348
532,000000	80,910850
531,000000	80,966494
530,000000	81,017797
529,000000	81,092140
528,000000	81,172364
527,000000	81,229746
526,000000	81,317283
525,000000	81,420404
524,000000	81,518348
523,000000	81,622610
522,000000	81,746081
521,000000	81,861836
520,000000	81,980828
519,000000	82,084002
518,000000	82,186721
517,000000	82,297008
516,000000	82,375789
515,000000	82,490348
514,000000	82,611090
513,000000	82,729957
512,000000	82,845022
511,000000	82,961798
510,000000	83,057044
509,000000	83,187889
508,000000	83,323365
507,000000	83,445685
506,000000	83,561700
505,000000	83,681400
504,000000	83,791346
503,000000	83,894099
502,000000	83,990565
501,000000	84,081959
500,000000	84,224969
499,000000	84,327612
498,000000	84,395404
497,000000	84,460401
496,000000	84,562344
495,000000	84,639252
494,000000	84,733263
493,000000	84,818303
492,000000	84,916055
491,000000	85,050683
490,000000	85,146768
489,000000	85,242229
488,000000	85,350283
487,000000	85,461901
486,000000	85,571182
485,000000	85,707188
484,000000	85,810014
483,000000	85,926913
482,000000	86,043024
481,000000	86,152604
480,000000	86,294435
479,000000	86,421952
478,000000	86,524478
477,000000	86,626242
476,000000	86,732809
475,000000	86,815769
474,000000	86,861623
473,000000	86,940154
472,000000	86,996630
471,000000	87,027093
470,000000	87,088865
469,000000	87,088846
468,000000	87,083201
467,000000	87,050222
466,000000	87,016449
465,000000	87,060452
464,000000	86,998440
463,000000	87,002423
462,000000	86,983490
461,000000	86,922555
460,000000	86,935785
459,000000	86,906567
458,000000	86,888108
457,000000	86,883792
456,000000	86,883066
455,000000	86,841060
454,000000	86,818933
453,000000	86,792079
452,000000	86,763430
451,000000	86,745321
450,000000	86,766374
449,000000	86,804936
448,000000	86,796566
447,000000	86,800020
446,000000	86,823540
445,000000	86,769351
444,000000	86,791425
443,000000	86,791861
442,000000	86,816465
441,000000	86,832267
440,000000	86,780704
439,000000	86,751170
438,000000	86,738851
437,000000	86,731438
436,000000	86,726547
435,000000	86,729762
434,000000	86,758826
433,000000	86,789889
432,000000	86,786407
431,000000	86,781523
430,000000	86,784926
429,000000	86,790864
428,000000	86,849072
427,000000	86,791614
426,000000	86,797330
425,000000	86,824342
424,000000	86,812983
423,000000	86,824568
422,000000	86,783408
421,000000	86,871912
420,000000	86,945774
419,000000	86,956291
418,000000	86,972128
417,000000	87,039191
416,000000	87,106002
415,000000	87,130262
414,000000	87,131040
413,000000	87,145831
412,000000	87,176604
411,000000	87,222827
410,000000	87,185425
409,000000	87,138336
408,000000	87,167458
407,000000	87,183742
406,000000	87,033232
405,000000	86,952817
404,000000	86,914025
403,000000	86,860328
402,000000	86,816142
401,000000	86,705581
400,000000	86,395589
399,000000	85,158065
398,000000	85,110422
397,000000	85,217074
396,000000	84,845157
395,000000	85,297642
394,000000	85,702221
393,000000	85,545762
392,000000	84,810352
391,000000	84,806822
390,000000	84,671817
389,000000	84,723305
388,000000	84,778368
387,000000	84,253825
386,000000	84,520547
385,000000	83,971309
384,000000	83,946347
383,000000	84,292537
382,000000	83,769625
381,000000	83,587754
380,000000	84,140205
379,000000	84,136836
378,000000	83,746211
377,000000	84,283041
376,000000	84,079950
375,000000	84,028425
374,000000	84,338545
373,000000	84,701001
372,000000	84,358469
371,000000	84,199123
370,000000	84,010304
369,000000	84,228241
368,000000	84,523261
367,000000	83,923083
366,000000	84,049859
365,000000	84,043626
364,000000	83,860916
363,000000	83,635534
362,000000	83,670289
361,000000	83,839333
360,000000	83,605130
359,000000	83,412697
358,000000	83,305046
357,000000	83,098962
356,000000	82,984040
355,000000	82,553793
354,000000	82,487829
353,000000	82,472466
352,000000	81,726105
351,000000	81,356983
350,000000	81,058520
349,000000	80,812954
348,000000	80,517803
347,000000	80,046248
346,000000	79,325699
345,000000	79,011257
344,000000	78,380998
343,000000	77,667797
342,000000	77,197953
341,000000	76,316832
340,000000	75,406814
339,000000	74,516255
338,000000	73,647564
337,000000	72,736522
336,000000	71,539638
335,000000	70,330771
334,000000	69,192174
333,000000	67,893109
332,000000	66,316829
331,000000	64,584051
330,000000	62,731826
329,000000	61,059877
328,000000	59,307314
327,000000	57,387883
326,000000	55,399489
325,000000	53,343200
324,000000	51,071364
323,000000	48,858892
322,000000	46,670915
321,000000	44,365724
320,000000	41,957942
319,000000	39,466644
318,000000	36,871155
317,000000	34,205121
316,000000	31,529681
315,000000	28,939620
314,000000	26,361123
313,000000	23,836731
312,000000	21,412493
311,000000	19,115460
310,000000	16,932075
309,000000	14,892504
308,000000	12,950475
307,000000	11,147777
306,000000	9,503011
305,000000	7,982749
304,000000	6,640760
303,000000	5,401471
302,000000	4,255581
301,000000	3,215636
300,000000	2,313528
299,000000	1,688297
298,000000	1,130645
297,000000	0,708892
296,000000	0,377425
295,000000	0,075214
294,000000	0,016919
293,000000	0,008337
292,000000	0,008452
291,000000	0,008686
290,000000	0,008550
289,000000	0,008686
288,000000	0,008598
287,000000	0,008357
286,000000	0,008209
285,000000	0,008286
284,000000	0,008416
283,000000	0,007999
282,000000	0,008040
281,000000	0,008122
280,000000	0,007876
279,000000	0,007858
278,000000	0,007531
277,000000	0,007333
276,000000	0,007411
275,000000	0,007688
274,000000	0,007645
273,000000	0,007019
272,000000	0,006956
271,000000	0,007048
270,000000	0,006892
269,000000	0,006289
268,000000	0,006228
267,000000	0,006112
266,000000	0,006050
265,000000	0,005899
264,000000	0,005436
263,000000	0,005548
262,000000	0,005372
261,000000	0,005088
260,000000	0,004813
259,000000	0,004657
258,000000	0,004849
257,000000	0,004625
256,000000	0,004495
255,000000	0,004336
254,000000	0,004064
253,000000	0,003951
252,000000	0,004129
251,000000	0,003957
250,000000	0,003845
249,000000	0,003889
248,000000	0,003684
247,000000	0,003534
246,000000	0,003470
245,000000	0,003483
244,000000	0,003523
243,000000	0,003493
242,000000	0,003290
241,000000	0,003225
240,000000	0,003263
239,000000	0,003324
238,000000	0,003295
237,000000	0,003172
236,000000	0,003176
235,000000	0,003143
234,000000	0,003138
233,000000	0,003317
232,000000	0,003173
231,000000	0,003125
230,000000	0,003180
229,000000	0,003293
228,000000	0,003392
227,000000	0,003382
226,000000	0,003480
225,000000	0,003573
224,000000	0,003642
223,000000	0,003674
222,000000	0,003591
221,000000	0,003611
220,000000	0,003708
219,000000	0,003814
218,000000	0,003934
217,000000	0,004284
216,000000	0,004157
215,000000	0,004300
214,000000	0,004557
213,000000	0,004733
212,000000	0,004666
211,000000	0,004794
210,000000	0,005132
209,000000	0,005501
208,000000	0,005745
207,000000	0,005736
206,000000	0,005943
205,000000	0,006578
204,000000	0,006915
203,000000	0,007039
202,000000	0,007690
201,000000	0,009049
200,000000	0,009434
