PE UV       SUBTECH     SPECTRUM    ASCII       PEDS        4.00        
   -1
white0.asc
24/07/02
10:45:01.00
24/07/02
10:45:01.00
student

200,000000
1
Lambda 365
365K7092207
  / Unknown

480
1
0,5
0
0
Both on
1
1
1
None
0
0
0
0
 
 
0
0
0
0
0
 
 
 
0
 
0
400
0
 
0
 
 
 
0
0
0
 
0
 
 
 
0
 
 
0
0
0
0
0
 
 
 
 
0
0


0
0
#HDR
-1
-1
#GR
nm
%T
1.0
0.0
1100,000000
-1,000000
901
8
89,236859
0,003095
#DATA
1100,000000	86,963564
1099,000000	86,972985
1098,000000	86,996775
1097,000000	87,000876
1096,000000	86,998566
1095,000000	87,049630
1094,000000	87,044639
1093,000000	87,051069
1092,000000	87,070048
1091,000000	87,092248
1090,000000	87,100423
1089,000000	87,082836
1088,000000	87,118015
1087,000000	87,112853
1086,000000	87,087964
1085,000000	87,128587
1084,000000	87,144673
1083,000000	87,156742
1082,000000	87,168021
1081,000000	87,171143
1080,000000	87,155735
1079,000000	87,138787
1078,000000	87,192017
1077,000000	87,212817
1076,000000	87,203393
1075,000000	87,204157
1074,000000	87,205647
1073,000000	87,218998
1072,000000	87,240468
1071,000000	87,259304
1070,000000	87,264045
1069,000000	87,252126
1068,000000	87,266362
1067,000000	87,286282
1066,000000	87,296409
1065,000000	87,290745
1064,000000	87,301777
1063,000000	87,290224
1062,000000	87,277318
1061,000000	87,273456
1060,000000	87,281765
1059,000000	87,288069
1058,000000	87,304444
1057,000000	87,317755
1056,000000	87,339992
1055,000000	87,372266
1054,000000	87,371147
1053,000000	87,362285
1052,000000	87,360517
1051,000000	87,361866
1050,000000	87,366195
1049,000000	87,389075
1048,000000	87,395112
1047,000000	87,402559
1046,000000	87,402091
1045,000000	87,392943
1044,000000	87,395038
1043,000000	87,408884
1042,000000	87,414521
1041,000000	87,422413
1040,000000	87,431854
1039,000000	87,421766
1038,000000	87,432413
1037,000000	87,445098
1036,000000	87,456769
1035,000000	87,464760
1034,000000	87,466033
1033,000000	87,464974
1032,000000	87,468608
1031,000000	87,472959
1030,000000	87,476750
1029,000000	87,481584
1028,000000	87,475497
1027,000000	87,480761
1026,000000	87,485650
1025,000000	87,492292
1024,000000	87,512856
1023,000000	87,502426
1022,000000	87,507305
1021,000000	87,510108
1020,000000	87,513473
1019,000000	87,530858
1018,000000	87,525009
1017,000000	87,531628
1016,000000	87,539190
1015,000000	87,541511
1014,000000	87,535986
1013,000000	87,528747
1012,000000	87,541673
1011,000000	87,544204
1010,000000	87,542633
1009,000000	87,555773
1008,000000	87,571095
1007,000000	87,570853
1006,000000	87,572879
1005,000000	87,575890
1004,000000	87,573520
1003,000000	87,569075
1002,000000	87,576721
1001,000000	87,592066
1000,000000	87,601078
999,000000	87,593290
998,000000	87,589915
997,000000	87,597918
996,000000	87,598225
995,000000	87,599621
994,000000	87,609839
993,000000	87,607968
992,000000	87,615015
991,000000	87,617830
990,000000	87,619685
989,000000	87,623164
988,000000	87,619676
987,000000	87,624650
986,000000	87,629375
985,000000	87,634090
984,000000	87,638476
983,000000	87,637913
982,000000	87,641570
981,000000	87,645019
980,000000	87,652161
979,000000	87,663170
978,000000	87,669375
977,000000	87,667340
976,000000	87,663739
975,000000	87,663471
974,000000	87,667415
973,000000	87,670186
972,000000	87,671621
971,000000	87,678416
970,000000	87,679880
969,000000	87,679188
968,000000	87,698527
967,000000	87,694385
966,000000	87,700331
965,000000	87,702832
964,000000	87,701692
963,000000	87,711335
962,000000	87,712305
961,000000	87,714266
960,000000	87,714025
959,000000	87,711999
958,000000	87,711758
957,000000	87,714371
956,000000	87,726154
955,000000	87,739134
954,000000	87,745964
953,000000	87,740763
952,000000	87,738839
951,000000	87,751195
950,000000	87,765289
949,000000	87,768855
948,000000	87,754305
947,000000	87,764507
946,000000	87,754359
945,000000	87,762565
944,000000	87,777907
943,000000	87,773513
942,000000	87,790798
941,000000	87,798777
940,000000	87,792410
939,000000	87,788744
938,000000	87,804510
937,000000	87,798582
936,000000	87,805916
935,000000	87,808362
934,000000	87,811803
933,000000	87,821359
932,000000	87,803097
931,000000	87,822899
930,000000	87,832748
929,000000	87,839852
928,000000	87,852826
927,000000	87,836769
926,000000	87,843284
925,000000	87,845771
924,000000	87,851180
923,000000	87,865348
922,000000	87,872954
921,000000	87,868259
920,000000	87,870162
919,000000	87,870147
918,000000	87,865915
917,000000	87,879883
916,000000	87,883275
915,000000	87,884353
914,000000	87,891006
913,000000	87,904609
912,000000	87,913600
911,000000	87,902226
910,000000	87,913855
909,000000	87,919717
908,000000	87,913119
907,000000	87,930622
906,000000	87,939115
905,000000	87,954501
904,000000	87,961837
903,000000	87,961912
902,000000	87,977460
901,000000	87,964929
900,000000	87,956757
899,000000	87,972127
898,000000	87,996865
897,000000	87,982954
896,000000	87,987570
895,000000	87,989143
894,000000	87,995280
893,000000	88,006034
892,000000	88,015214
891,000000	88,021582
890,000000	88,031510
889,000000	88,042901
888,000000	88,044483
887,000000	88,023136
886,000000	88,050010
885,000000	88,053201
884,000000	88,049271
883,000000	88,055239
882,000000	88,082341
881,000000	88,060259
880,000000	88,080106
879,000000	88,094227
878,000000	88,094901
877,000000	88,091750
876,000000	88,095397
875,000000	88,109202
874,000000	88,122182
873,000000	88,131014
872,000000	88,139308
871,000000	88,179294
870,000000	88,140523
869,000000	88,142176
868,000000	88,161334
867,000000	88,152535
866,000000	88,156072
865,000000	88,175651
864,000000	88,189546
863,000000	88,191373
862,000000	88,185293
861,000000	88,203076
860,000000	88,213060
859,000000	88,212424
858,000000	88,217757
857,000000	88,238812
856,000000	88,254491
855,000000	88,248725
854,000000	88,266422
853,000000	88,275733
852,000000	88,262417
851,000000	88,277855
850,000000	88,262510
849,000000	88,277469
848,000000	88,304158
847,000000	88,324758
846,000000	88,336323
845,000000	88,350169
844,000000	88,354502
843,000000	88,362293
842,000000	88,377239
841,000000	88,386474
840,000000	88,381060
839,000000	88,388691
838,000000	88,401022
837,000000	88,400331
836,000000	88,358651
835,000000	88,416137
834,000000	88,407481
833,000000	88,411209
832,000000	88,437389
831,000000	88,426383
830,000000	88,442596
829,000000	88,436077
828,000000	88,446207
827,000000	88,472523
826,000000	88,483745
825,000000	88,491776
824,000000	88,500641
823,000000	88,507379
822,000000	88,512519
821,000000	88,519041
820,000000	88,533736
819,000000	88,559179
818,000000	88,576176
817,000000	88,573129
816,000000	88,549731
815,000000	88,588700
814,000000	88,589053
813,000000	88,599255
812,000000	88,615878
811,000000	88,619566
810,000000	88,632080
809,000000	88,616509
808,000000	88,628926
807,000000	88,653986
806,000000	88,660612
805,000000	88,664430
804,000000	88,666257
803,000000	88,679873
802,000000	88,692656
801,000000	88,694713
800,000000	88,705701
799,000000	88,728903
798,000000	88,735895
797,000000	88,742708
796,000000	88,757931
795,000000	88,761601
794,000000	88,773833
793,000000	88,768877
792,000000	88,780278
791,000000	88,812241
790,000000	88,823496
789,000000	88,818789
788,000000	88,819219
787,000000	88,824472
786,000000	88,832336
785,000000	88,840295
784,000000	88,882726
783,000000	88,895677
782,000000	88,900522
781,000000	88,906905
780,000000	88,916876
779,000000	88,926462
778,000000	88,922570
777,000000	88,925276
776,000000	88,932338
775,000000	88,934762
774,000000	88,935214
773,000000	88,949571
772,000000	88,977754
771,000000	88,999222
770,000000	88,998925
769,000000	89,000596
768,000000	89,010421
767,000000	89,014945
766,000000	89,010028
765,000000	89,002103
764,000000	89,019433
763,000000	89,047258
762,000000	89,054488
761,000000	89,065016
760,000000	89,087288
759,000000	89,099787
758,000000	89,088694
757,000000	89,095632
756,000000	89,115718
755,000000	89,134760
754,000000	89,132311
753,000000	89,155502
752,000000	89,149201
751,000000	89,149835
750,000000	89,156568
749,000000	89,148399
748,000000	89,169753
747,000000	89,169245
746,000000	89,180377
745,000000	89,197196
744,000000	89,199689
743,000000	89,185287
742,000000	89,204223
741,000000	89,206056
740,000000	89,204892
739,000000	89,221192
738,000000	89,233754
737,000000	89,236555
736,000000	89,236859
735,000000	89,230162
734,000000	89,218549
733,000000	89,224406
732,000000	89,220056
731,000000	89,230361
730,000000	89,228080
729,000000	89,209856
728,000000	89,215089
727,000000	89,220812
726,000000	89,218554
725,000000	89,213107
724,000000	89,206091
723,000000	89,195174
722,000000	89,158269
721,000000	89,158490
720,000000	89,152445
719,000000	89,133385
718,000000	89,117390
717,000000	89,106729
716,000000	89,080137
715,000000	89,038563
714,000000	89,005003
713,000000	88,996731
712,000000	88,932316
711,000000	88,891170
710,000000	88,853562
709,000000	88,812957
708,000000	88,763789
707,000000	88,690669
706,000000	88,624438
705,000000	88,557261
704,000000	88,494668
703,000000	88,432691
702,000000	88,339624
701,000000	88,245227
700,000000	88,146928
699,000000	88,046707
698,000000	87,939726
697,000000	87,810314
696,000000	87,697253
695,000000	87,560089
694,000000	87,413645
693,000000	87,268030
692,000000	87,126301
691,000000	86,951737
690,000000	86,771111
689,000000	86,587934
688,000000	86,394451
687,000000	86,179977
686,000000	85,977216
685,000000	85,749169
684,000000	85,531667
683,000000	85,314416
682,000000	85,076591
681,000000	84,837283
680,000000	84,601056
679,000000	84,358455
678,000000	84,111153
677,000000	83,864749
676,000000	83,627308
675,000000	83,380940
674,000000	83,138435
673,000000	82,912000
672,000000	82,699515
671,000000	82,461414
670,000000	82,237313
669,000000	82,030771
668,000000	81,834504
667,000000	81,640203
666,000000	81,434936
665,000000	81,257166
664,000000	81,075245
663,000000	80,899971
662,000000	80,734989
661,000000	80,568612
660,000000	80,431055
659,000000	80,287734
658,000000	80,147530
657,000000	80,015688
656,000000	79,889903
655,000000	79,784761
654,000000	79,682454
653,000000	79,591921
652,000000	79,516931
651,000000	79,458055
650,000000	79,381513
649,000000	79,329248
648,000000	79,288969
647,000000	79,254237
646,000000	79,222513
645,000000	79,205766
644,000000	79,195855
643,000000	79,190093
642,000000	79,190100
641,000000	79,198422
640,000000	79,217408
639,000000	79,250402
638,000000	79,280819
637,000000	79,308013
636,000000	79,337719
635,000000	79,385758
634,000000	79,436840
633,000000	79,467097
632,000000	79,501817
631,000000	79,550661
630,000000	79,585078
629,000000	79,648474
628,000000	79,688335
627,000000	79,717869
626,000000	79,742353
625,000000	79,754885
624,000000	79,774813
623,000000	79,787305
622,000000	79,800745
621,000000	79,817041
620,000000	79,832027
619,000000	79,822001
618,000000	79,820427
617,000000	79,808480
616,000000	79,796597
615,000000	79,799148
614,000000	79,760881
613,000000	79,718049
612,000000	79,689142
611,000000	79,667144
610,000000	79,639891
609,000000	79,603732
608,000000	79,556846
607,000000	79,515959
606,000000	79,479205
605,000000	79,437038
604,000000	79,367673
603,000000	79,316517
602,000000	79,251885
601,000000	79,186584
600,000000	79,123888
599,000000	79,047168
598,000000	79,012740
597,000000	78,949362
596,000000	78,901966
595,000000	78,883364
594,000000	78,872796
593,000000	78,878176
592,000000	78,901265
591,000000	78,954362
590,000000	79,033453
589,000000	79,128383
588,000000	79,284901
587,000000	79,425195
586,000000	79,606819
585,000000	79,823176
584,000000	80,049547
583,000000	80,308036
582,000000	80,564184
581,000000	80,811801
580,000000	81,071488
579,000000	81,349279
578,000000	81,578052
577,000000	81,809976
576,000000	82,053338
575,000000	82,283120
574,000000	82,487949
573,000000	82,694196
572,000000	82,893249
571,000000	83,081309
570,000000	83,249103
569,000000	83,398436
568,000000	83,545445
567,000000	83,696749
566,000000	83,810663
565,000000	83,911116
564,000000	83,999959
563,000000	84,061350
562,000000	84,094161
561,000000	84,165857
560,000000	84,210069
559,000000	84,212947
558,000000	84,190871
557,000000	84,176877
556,000000	84,148417
555,000000	84,099895
554,000000	84,033902
553,000000	83,952300
552,000000	83,835867
551,000000	83,725703
550,000000	83,609780
549,000000	83,497141
548,000000	83,387508
547,000000	83,264653
546,000000	83,123012
545,000000	83,019517
544,000000	82,922823
543,000000	82,818874
542,000000	82,738686
541,000000	82,671631
540,000000	82,586695
539,000000	82,513257
538,000000	82,465993
537,000000	82,440126
536,000000	82,398005
535,000000	82,399079
534,000000	82,391517
533,000000	82,382162
532,000000	82,416281
531,000000	82,482826
530,000000	82,516670
529,000000	82,573097
528,000000	82,644755
527,000000	82,704157
526,000000	82,805351
525,000000	82,909464
524,000000	83,004377
523,000000	83,109896
522,000000	83,238455
521,000000	83,319308
520,000000	83,428066
519,000000	83,542964
518,000000	83,648718
517,000000	83,739374
516,000000	83,830218
515,000000	83,946406
514,000000	84,072327
513,000000	84,188450
512,000000	84,285640
511,000000	84,376104
510,000000	84,486256
509,000000	84,612346
508,000000	84,750454
507,000000	84,883281
506,000000	84,976632
505,000000	85,063829
504,000000	85,182560
503,000000	85,297351
502,000000	85,388674
501,000000	85,455204
500,000000	85,563729
499,000000	85,641936
498,000000	85,723101
497,000000	85,803614
496,000000	85,862458
495,000000	85,929361
494,000000	86,022122
493,000000	86,091772
492,000000	86,158605
491,000000	86,258174
490,000000	86,351466
489,000000	86,445917
488,000000	86,541121
487,000000	86,627700
486,000000	86,705988
485,000000	86,822394
484,000000	86,851815
483,000000	86,939071
482,000000	87,035678
481,000000	87,102291
480,000000	87,189713
479,000000	87,289956
478,000000	87,367704
477,000000	87,443187
476,000000	87,517626
475,000000	87,554988
474,000000	87,623760
473,000000	87,698427
472,000000	87,767202
471,000000	87,818380
470,000000	87,841204
469,000000	87,916055
468,000000	87,959074
467,000000	87,985878
466,000000	88,012916
465,000000	88,060710
464,000000	88,105226
463,000000	88,134431
462,000000	88,149025
461,000000	88,154464
460,000000	88,164915
459,000000	88,217036
458,000000	88,223269
457,000000	88,224882
456,000000	88,248955
455,000000	88,238511
454,000000	88,236118
453,000000	88,248577
452,000000	88,271209
451,000000	88,294499
450,000000	88,302260
449,000000	88,273597
448,000000	88,244447
447,000000	88,246245
446,000000	88,278443
445,000000	88,291966
444,000000	88,277903
443,000000	88,285703
442,000000	88,273275
441,000000	88,253942
440,000000	88,265646
439,000000	88,280338
438,000000	88,256294
437,000000	88,251768
436,000000	88,254363
435,000000	88,258688
434,000000	88,303536
433,000000	88,292920
432,000000	88,269412
431,000000	88,287784
430,000000	88,326076
429,000000	88,316128
428,000000	88,332424
427,000000	88,277587
426,000000	88,265758
425,000000	88,297104
424,000000	88,331990
423,000000	88,313960
422,000000	88,271918
421,000000	88,336630
420,000000	88,340434
419,000000	88,256354
418,000000	88,216822
417,000000	88,357089
416,000000	88,324520
415,000000	88,328492
414,000000	88,366944
413,000000	88,369561
412,000000	88,331416
411,000000	88,375149
410,000000	88,387645
409,000000	88,371966
408,000000	88,357218
407,000000	88,348252
406,000000	88,234040
405,000000	88,224253
404,000000	88,253852
403,000000	88,250176
402,000000	88,301779
401,000000	88,251356
400,000000	88,000251
399,000000	86,964678
398,000000	86,918547
397,000000	86,764661
396,000000	86,566857
395,000000	86,531978
394,000000	86,638948
393,000000	86,684946
392,000000	86,245535
391,000000	86,344237
390,000000	86,170059
389,000000	86,135736
388,000000	86,150851
387,000000	85,689560
386,000000	85,690496
385,000000	85,925268
384,000000	85,926272
383,000000	85,675628
382,000000	85,499282
381,000000	85,780669
380,000000	85,847765
379,000000	85,649150
378,000000	85,428739
377,000000	85,714072
376,000000	85,697397
375,000000	85,706187
374,000000	85,772319
373,000000	85,907803
372,000000	86,099140
371,000000	85,653817
370,000000	85,937726
369,000000	86,104832
368,000000	85,958392
367,000000	85,851187
366,000000	85,395233
365,000000	85,614279
364,000000	85,910553
363,000000	85,871281
362,000000	85,267308
361,000000	85,175774
360,000000	85,179772
359,000000	85,167860
358,000000	85,156309
357,000000	85,231724
356,000000	84,457135
355,000000	84,079425
354,000000	84,015724
353,000000	83,995111
352,000000	83,675269
351,000000	83,316296
350,000000	82,987496
349,000000	82,542587
348,000000	82,116037
347,000000	81,907744
346,000000	81,585119
345,000000	80,902014
344,000000	80,163434
343,000000	79,488009
342,000000	78,864160
341,000000	77,999165
340,000000	77,278896
339,000000	76,444783
338,000000	75,565632
337,000000	74,686822
336,000000	73,586495
335,000000	72,385128
334,000000	71,201792
333,000000	69,887751
332,000000	68,372539
331,000000	66,782204
330,000000	65,002527
329,000000	63,358671
328,000000	61,592703
327,000000	59,629863
326,000000	57,595326
325,000000	55,548435
324,000000	53,359460
323,000000	51,175452
322,000000	48,955266
321,000000	46,597895
320,000000	44,087035
319,000000	41,619941
318,000000	39,106456
317,000000	36,502860
316,000000	33,817959
315,000000	31,129004
314,000000	28,417228
313,000000	25,827459
312,000000	23,381266
311,000000	21,047350
310,000000	18,729669
309,000000	16,635849
308,000000	14,590701
307,000000	12,610091
306,000000	10,741118
305,000000	9,051809
304,000000	7,555648
303,000000	6,272255
302,000000	5,043548
301,000000	3,912585
300,000000	3,054715
299,000000	2,223226
298,000000	1,623889
297,000000	1,123730
296,000000	0,702450
295,000000	0,373273
294,000000	0,053012
293,000000	0,008679
292,000000	0,008596
291,000000	0,008454
290,000000	0,008668
289,000000	0,008644
288,000000	0,008496
287,000000	0,008317
286,000000	0,008244
285,000000	0,008312
284,000000	0,008307
283,000000	0,008212
282,000000	0,007917
281,000000	0,007835
280,000000	0,008106
279,000000	0,007565
278,000000	0,007477
277,000000	0,007468
276,000000	0,007451
275,000000	0,007394
274,000000	0,007265
273,000000	0,007360
272,000000	0,006974
271,000000	0,006792
270,000000	0,006881
269,000000	0,006370
268,000000	0,006088
267,000000	0,006145
266,000000	0,005937
265,000000	0,005533
264,000000	0,005421
263,000000	0,005479
262,000000	0,005218
261,000000	0,005131
260,000000	0,005044
259,000000	0,004698
258,000000	0,004579
257,000000	0,004550
256,000000	0,004493
255,000000	0,004401
254,000000	0,004261
253,000000	0,003998
252,000000	0,004136
251,000000	0,003996
250,000000	0,003813
249,000000	0,003704
248,000000	0,003540
247,000000	0,003697
246,000000	0,003611
245,000000	0,003481
244,000000	0,003437
243,000000	0,003520
242,000000	0,003297
241,000000	0,003265
240,000000	0,003200
239,000000	0,003126
238,000000	0,003284
237,000000	0,003184
236,000000	0,003173
235,000000	0,003161
234,000000	0,003124
233,000000	0,003095
232,000000	0,003262
231,000000	0,003217
230,000000	0,003197
229,000000	0,003242
228,000000	0,003315
227,000000	0,003387
226,000000	0,003510
225,000000	0,003487
224,000000	0,003468
223,000000	0,003616
222,000000	0,003791
221,000000	0,003807
220,000000	0,003898
219,000000	0,003955
218,000000	0,003915
217,000000	0,003947
216,000000	0,004211
215,000000	0,004347
214,000000	0,004485
213,000000	0,004661
212,000000	0,004705
211,000000	0,004947
210,000000	0,005033
209,000000	0,005353
208,000000	0,005803
207,000000	0,005731
206,000000	0,006265
205,000000	0,006566
204,000000	0,006870
203,000000	0,007185
202,000000	0,007502
201,000000	0,008911
200,000000	0,009481
