PE UV       SUBTECH     SPECTRUM    ASCII       PEDS        4.00        
   -1
Sample1534.Probe.asc
24/07/02
09:08:55.00
24/07/02
09:08:55.00
student
Holmium-Linientest, 0.5 nm Slit 960nm/min
200,000000
1
Lambda 365
365K7092207
  / Unknown

960
1
0,5
0
0
Both on
1
1
1
None
0
0
0
0
 
 
0
0
0
0
0
 
 
 
0
 
0
400
0
 
0
 
 
 
0
0
0
 
0
 
 
 
0
 
 
0
0
0
0
0
 
 
 
 
0
0


0
0
#HDR
-1
-1
#GR
nm
%T
1.0
0.0
1100,000000
-1,000000
901
8
88,452359
0,003141
#DATA
1100,000000	88,140875
1099,000000	88,193250
1098,000000	88,186718
1097,000000	88,186252
1096,000000	88,219195
1095,000000	88,273346
1094,000000	88,235227
1093,000000	88,238355
1092,000000	88,257267
1091,000000	88,285122
1090,000000	88,329151
1089,000000	88,359532
1088,000000	88,356883
1087,000000	88,340824
1086,000000	88,337723
1085,000000	88,373522
1084,000000	88,378691
1083,000000	88,392741
1082,000000	88,388251
1081,000000	88,394352
1080,000000	88,452359
1079,000000	88,385237
1078,000000	88,386100
1077,000000	88,390041
1076,000000	88,393588
1075,000000	88,411887
1074,000000	88,402912
1073,000000	88,421204
1072,000000	88,410409
1071,000000	88,395735
1070,000000	88,417933
1069,000000	88,444846
1068,000000	88,446648
1067,000000	88,437953
1066,000000	88,432305
1065,000000	88,434984
1064,000000	88,411586
1063,000000	88,429872
1062,000000	88,419902
1061,000000	88,410141
1060,000000	88,426004
1059,000000	88,406344
1058,000000	88,420966
1057,000000	88,421931
1056,000000	88,418675
1055,000000	88,419169
1054,000000	88,399122
1053,000000	88,417286
1052,000000	88,407581
1051,000000	88,392938
1050,000000	88,394865
1049,000000	88,407864
1048,000000	88,406525
1047,000000	88,400807
1046,000000	88,406461
1045,000000	88,419987
1044,000000	88,399869
1043,000000	88,384411
1042,000000	88,374238
1041,000000	88,367104
1040,000000	88,363093
1039,000000	88,366453
1038,000000	88,359680
1037,000000	88,352639
1036,000000	88,345427
1035,000000	88,340758
1034,000000	88,345129
1033,000000	88,320641
1032,000000	88,314605
1031,000000	88,311291
1030,000000	88,308463
1029,000000	88,318397
1028,000000	88,299652
1027,000000	88,297137
1026,000000	88,292461
1025,000000	88,290066
1024,000000	88,310953
1023,000000	88,280888
1022,000000	88,277499
1021,000000	88,276636
1020,000000	88,271824
1019,000000	88,268419
1018,000000	88,274668
1017,000000	88,279875
1016,000000	88,272367
1015,000000	88,263846
1014,000000	88,274618
1013,000000	88,270952
1012,000000	88,253348
1011,000000	88,254514
1010,000000	88,265784
1009,000000	88,263865
1008,000000	88,258361
1007,000000	88,266929
1006,000000	88,263660
1005,000000	88,256097
1004,000000	88,259012
1003,000000	88,256326
1002,000000	88,257581
1001,000000	88,257768
1000,000000	88,254341
999,000000	88,245099
998,000000	88,224841
997,000000	88,219868
996,000000	88,231193
995,000000	88,240740
994,000000	88,233989
993,000000	88,227595
992,000000	88,221252
991,000000	88,221386
990,000000	88,218499
989,000000	88,207785
988,000000	88,207728
987,000000	88,209400
986,000000	88,212194
985,000000	88,212025
984,000000	88,206761
983,000000	88,199930
982,000000	88,202296
981,000000	88,199679
980,000000	88,189535
979,000000	88,177230
978,000000	88,181947
977,000000	88,178538
976,000000	88,170298
975,000000	88,167285
974,000000	88,170861
973,000000	88,167670
972,000000	88,153003
971,000000	88,147027
970,000000	88,143571
969,000000	88,140832
968,000000	88,144067
967,000000	88,137034
966,000000	88,144454
965,000000	88,145345
964,000000	88,136460
963,000000	88,133920
962,000000	88,123589
961,000000	88,127898
960,000000	88,128793
959,000000	88,125361
958,000000	88,130701
957,000000	88,127482
956,000000	88,115820
955,000000	88,112801
954,000000	88,113841
953,000000	88,102165
952,000000	88,116314
951,000000	88,094322
950,000000	88,089713
949,000000	88,099055
948,000000	88,090811
947,000000	88,079923
946,000000	88,080828
945,000000	88,073918
944,000000	88,060755
943,000000	88,052501
942,000000	88,057156
941,000000	88,053380
940,000000	88,051236
939,000000	88,044660
938,000000	88,025443
937,000000	88,008743
936,000000	88,008803
935,000000	88,000391
934,000000	87,989411
933,000000	87,986167
932,000000	87,978426
931,000000	87,962869
930,000000	87,931976
929,000000	87,894779
928,000000	87,856714
927,000000	87,791703
926,000000	87,724297
925,000000	87,630155
924,000000	87,526952
923,000000	87,433631
922,000000	87,350019
921,000000	87,261568
920,000000	87,181514
919,000000	87,108666
918,000000	87,040157
917,000000	86,974087
916,000000	86,909018
915,000000	86,848806
914,000000	86,809597
913,000000	86,804986
912,000000	86,844168
911,000000	86,896439
910,000000	86,937858
909,000000	86,981412
908,000000	87,032798
907,000000	87,082130
906,000000	87,158581
905,000000	87,199307
904,000000	87,242100
903,000000	87,291048
902,000000	87,301039
901,000000	87,332085
900,000000	87,339397
899,000000	87,318410
898,000000	87,287072
897,000000	87,284879
896,000000	87,231894
895,000000	87,183694
894,000000	87,114068
893,000000	87,027177
892,000000	86,951791
891,000000	86,858385
890,000000	86,763357
889,000000	86,671012
888,000000	86,596138
887,000000	86,556095
886,000000	86,485096
885,000000	86,447756
884,000000	86,419280
883,000000	86,400129
882,000000	86,405931
881,000000	86,479241
880,000000	86,552498
879,000000	86,641477
878,000000	86,747092
877,000000	86,860669
876,000000	86,951343
875,000000	87,039833
874,000000	87,122561
873,000000	87,203750
872,000000	87,285920
871,000000	87,338697
870,000000	87,388413
869,000000	87,437814
868,000000	87,482275
867,000000	87,514127
866,000000	87,518195
865,000000	87,542748
864,000000	87,557255
863,000000	87,570471
862,000000	87,590365
861,000000	87,588462
860,000000	87,609673
859,000000	87,604388
858,000000	87,593450
857,000000	87,598645
856,000000	87,609425
855,000000	87,599548
854,000000	87,598392
853,000000	87,593030
852,000000	87,580940
851,000000	87,597935
850,000000	87,587004
849,000000	87,583200
848,000000	87,584425
847,000000	87,587332
846,000000	87,592468
845,000000	87,572374
844,000000	87,568711
843,000000	87,562956
842,000000	87,552753
841,000000	87,566524
840,000000	87,551278
839,000000	87,541480
838,000000	87,530698
837,000000	87,522013
836,000000	87,531971
835,000000	87,483968
834,000000	87,477015
833,000000	87,483189
832,000000	87,492515
831,000000	87,513667
830,000000	87,481964
829,000000	87,467911
828,000000	87,470422
827,000000	87,480103
826,000000	87,481181
825,000000	87,471032
824,000000	87,466774
823,000000	87,462402
822,000000	87,455323
821,000000	87,445468
820,000000	87,439486
819,000000	87,429913
818,000000	87,427049
817,000000	87,419122
816,000000	87,389233
815,000000	87,391977
814,000000	87,396760
813,000000	87,386442
812,000000	87,380239
811,000000	87,401314
810,000000	87,382037
809,000000	87,367231
808,000000	87,354662
807,000000	87,342405
806,000000	87,332545
805,000000	87,350860
804,000000	87,337852
803,000000	87,341380
802,000000	87,343427
801,000000	87,323778
800,000000	87,303199
799,000000	87,325417
798,000000	87,305437
797,000000	87,290663
796,000000	87,305647
795,000000	87,288954
794,000000	87,287738
793,000000	87,278491
792,000000	87,272715
791,000000	87,271225
790,000000	87,257069
789,000000	87,259987
788,000000	87,264376
787,000000	87,245792
786,000000	87,216842
785,000000	87,221205
784,000000	87,215837
783,000000	87,207600
782,000000	87,187104
781,000000	87,168253
780,000000	87,172667
779,000000	87,147528
778,000000	87,145983
777,000000	87,136164
776,000000	87,114657
775,000000	87,089546
774,000000	87,070511
773,000000	87,084025
772,000000	87,066529
771,000000	87,045106
770,000000	87,050452
769,000000	87,044279
768,000000	87,050892
767,000000	87,041137
766,000000	87,030480
765,000000	87,028598
764,000000	87,015924
763,000000	87,032232
762,000000	87,009809
761,000000	86,983072
760,000000	86,974242
759,000000	86,975223
758,000000	86,950679
757,000000	86,941119
756,000000	86,925466
755,000000	86,900899
754,000000	86,883962
753,000000	86,874315
752,000000	86,871858
751,000000	86,871096
750,000000	86,870848
749,000000	86,872030
748,000000	86,865197
747,000000	86,871666
746,000000	86,873661
745,000000	86,865238
744,000000	86,851255
743,000000	86,876632
742,000000	86,864427
741,000000	86,838827
740,000000	86,820906
739,000000	86,822045
738,000000	86,818346
737,000000	86,805756
736,000000	86,804417
735,000000	86,805298
734,000000	86,804762
733,000000	86,824090
732,000000	86,819596
731,000000	86,820051
730,000000	86,816578
729,000000	86,808238
728,000000	86,810735
727,000000	86,803683
726,000000	86,795656
725,000000	86,787689
724,000000	86,784897
723,000000	86,795561
722,000000	86,788681
721,000000	86,771715
720,000000	86,749274
719,000000	86,736167
718,000000	86,750040
717,000000	86,765126
716,000000	86,750700
715,000000	86,734812
714,000000	86,721021
713,000000	86,706752
712,000000	86,714217
711,000000	86,689473
710,000000	86,681629
709,000000	86,681989
708,000000	86,673788
707,000000	86,664969
706,000000	86,660451
705,000000	86,651265
704,000000	86,636319
703,000000	86,620969
702,000000	86,623121
701,000000	86,630914
700,000000	86,620600
699,000000	86,610953
698,000000	86,605410
697,000000	86,579977
696,000000	86,591046
695,000000	86,580398
694,000000	86,577092
693,000000	86,578959
692,000000	86,554215
691,000000	86,547110
690,000000	86,545265
689,000000	86,535504
688,000000	86,520474
687,000000	86,509999
686,000000	86,482265
685,000000	86,479569
684,000000	86,476671
683,000000	86,465453
682,000000	86,444937
681,000000	86,416343
680,000000	86,389873
679,000000	86,361993
678,000000	86,332625
677,000000	86,296937
676,000000	86,224771
675,000000	86,156132
674,000000	86,053883
673,000000	85,904733
672,000000	85,682329
671,000000	85,300042
670,000000	84,628666
669,000000	83,573293
668,000000	82,271109
667,000000	80,885553
666,000000	79,597464
665,000000	78,480185
664,000000	77,536158
663,000000	76,905207
662,000000	76,715274
661,000000	77,057193
660,000000	77,467298
659,000000	77,893834
658,000000	78,336276
657,000000	78,682018
656,000000	78,686573
655,000000	78,132929
654,000000	77,088157
653,000000	75,696619
652,000000	74,054462
651,000000	72,231744
650,000000	70,485139
649,000000	69,884054
648,000000	70,054460
647,000000	70,483184
646,000000	70,657170
645,000000	70,825293
644,000000	70,843074
643,000000	70,446013
642,000000	69,433914
641,000000	67,721561
640,000000	65,555222
639,000000	63,947521
638,000000	63,226305
637,000000	63,399061
636,000000	64,349290
635,000000	65,934744
634,000000	68,546315
633,000000	71,714644
632,000000	74,960755
631,000000	77,839104
630,000000	79,975095
629,000000	81,360012
628,000000	82,337479
627,000000	83,043915
626,000000	83,574399
625,000000	83,975543
624,000000	84,285036
623,000000	84,519086
622,000000	84,729581
621,000000	84,923839
620,000000	85,079114
619,000000	85,217854
618,000000	85,328820
617,000000	85,426343
616,000000	85,503260
615,000000	85,550313
614,000000	85,607341
613,000000	85,623412
612,000000	85,638914
611,000000	85,650769
610,000000	85,648940
609,000000	85,641523
608,000000	85,639022
607,000000	85,638581
606,000000	85,640285
605,000000	85,641778
604,000000	85,633589
603,000000	85,618991
602,000000	85,617288
601,000000	85,611012
600,000000	85,589180
599,000000	85,555195
598,000000	85,556206
597,000000	85,547030
596,000000	85,546715
595,000000	85,560057
594,000000	85,576915
593,000000	85,605982
592,000000	85,601672
591,000000	85,584236
590,000000	85,578804
589,000000	85,605809
588,000000	85,599797
587,000000	85,587225
586,000000	85,587214
585,000000	85,586040
584,000000	85,565493
583,000000	85,554084
582,000000	85,533563
581,000000	85,535389
580,000000	85,528656
579,000000	85,497284
578,000000	85,524579
577,000000	85,498991
576,000000	85,500497
575,000000	85,490342
574,000000	85,452233
573,000000	85,445592
572,000000	85,446750
571,000000	85,442351
570,000000	85,429863
569,000000	85,409270
568,000000	85,382887
567,000000	85,379250
566,000000	85,360958
565,000000	85,335278
564,000000	85,303933
563,000000	85,265362
562,000000	85,245988
561,000000	85,187482
560,000000	85,114554
559,000000	85,010708
558,000000	84,839421
557,000000	84,557608
556,000000	83,929627
555,000000	82,737803
554,000000	81,222773
553,000000	79,789325
552,000000	78,877928
551,000000	77,687297
550,000000	76,074387
549,000000	73,896895
548,000000	71,344593
547,000000	69,797093
546,000000	69,524865
545,000000	69,576795
544,000000	69,354497
543,000000	68,216168
542,000000	65,379422
541,000000	61,560211
540,000000	56,171829
539,000000	50,101856
538,000000	44,780226
537,000000	42,064874
536,000000	42,528816
535,000000	47,403537
534,000000	55,035193
533,000000	63,505646
532,000000	70,740845
531,000000	75,156999
530,000000	77,995974
529,000000	79,844354
528,000000	81,062014
527,000000	81,928696
526,000000	82,522590
525,000000	82,967092
524,000000	83,304888
523,000000	83,556115
522,000000	83,736597
521,000000	83,842566
520,000000	83,962518
519,000000	84,023852
518,000000	84,074607
517,000000	84,161848
516,000000	84,254436
515,000000	84,294259
514,000000	84,300477
513,000000	84,292968
512,000000	84,270150
511,000000	84,183983
510,000000	84,129288
509,000000	84,099536
508,000000	84,080357
507,000000	84,083999
506,000000	84,158471
505,000000	84,142295
504,000000	84,175977
503,000000	84,179303
502,000000	84,141380
501,000000	84,112967
500,000000	84,037882
499,000000	83,917673
498,000000	83,705301
497,000000	83,350487
496,000000	82,798374
495,000000	81,895527
494,000000	80,886835
493,000000	79,342067
492,000000	77,494924
491,000000	75,734741
490,000000	73,675416
489,000000	71,635699
488,000000	70,872392
487,000000	70,987197
486,000000	71,063216
485,000000	69,856283
484,000000	69,953411
483,000000	71,772336
482,000000	74,219352
481,000000	76,367014
480,000000	78,277448
479,000000	79,044667
478,000000	78,044395
477,000000	75,584496
476,000000	72,471481
475,000000	70,124504
474,000000	69,278339
473,000000	69,649848
472,000000	70,484273
471,000000	71,417190
470,000000	72,524355
469,000000	71,248427
468,000000	68,075858
467,000000	64,182084
466,000000	58,906477
465,000000	49,688806
464,000000	35,070707
463,000000	24,932549
462,000000	17,378258
461,000000	11,432335
460,000000	8,108623
459,000000	11,696006
458,000000	20,570098
457,000000	27,283343
456,000000	26,152487
455,000000	18,325964
454,000000	12,434980
453,000000	11,400039
452,000000	14,776618
451,000000	20,499198
450,000000	23,068381
449,000000	14,254692
448,000000	6,428960
447,000000	2,044453
446,000000	0,895276
445,000000	0,875895
444,000000	5,817008
443,000000	26,169413
442,000000	46,589592
441,000000	60,293821
440,000000	67,191157
439,000000	71,246666
438,000000	74,218887
437,000000	76,436366
436,000000	77,949136
435,000000	78,796566
434,000000	79,041883
433,000000	79,251526
432,000000	79,600592
431,000000	79,767339
430,000000	79,517880
429,000000	78,711348
428,000000	77,091271
427,000000	74,464759
426,000000	71,983959
425,000000	70,698189
424,000000	71,282548
423,000000	73,574234
422,000000	71,490424
421,000000	65,960480
420,000000	59,271615
419,000000	54,562881
418,000000	55,235831
417,000000	62,951771
416,000000	67,454159
415,000000	69,410936
414,000000	70,741555
413,000000	73,456618
412,000000	76,590732
411,000000	78,474272
410,000000	79,505093
409,000000	80,077608
408,000000	80,512113
407,000000	80,574098
406,000000	80,628953
405,000000	80,715039
404,000000	80,750324
403,000000	80,669458
402,000000	80,541684
401,000000	80,647478
400,000000	80,576721
399,000000	80,008578
398,000000	79,976558
397,000000	80,446460
396,000000	79,262325
395,000000	79,607627
394,000000	79,678196
393,000000	78,846595
392,000000	78,125212
391,000000	77,604052
390,000000	77,618882
389,000000	77,166702
388,000000	75,794809
387,000000	73,405412
386,000000	70,845674
385,000000	73,287164
384,000000	75,450852
383,000000	75,057535
382,000000	72,206098
381,000000	74,290228
380,000000	76,973036
379,000000	78,568977
378,000000	78,996471
377,000000	79,038488
376,000000	78,904660
375,000000	79,190361
374,000000	79,121715
373,000000	78,482040
372,000000	77,555353
371,000000	74,832913
370,000000	71,948165
369,000000	69,657194
368,000000	68,179350
367,000000	67,297915
366,000000	62,354573
365,000000	55,841529
364,000000	49,184742
363,000000	41,103663
362,000000	27,844993
361,000000	11,662576
360,000000	27,516642
359,000000	46,850708
358,000000	60,439597
357,000000	68,485791
356,000000	71,029131
355,000000	72,710625
354,000000	73,136471
353,000000	72,813489
352,000000	72,763758
351,000000	73,016213
350,000000	72,045251
349,000000	70,224916
348,000000	68,873436
347,000000	69,429629
346,000000	70,709175
345,000000	70,252873
344,000000	70,509836
343,000000	71,248618
342,000000	71,622174
341,000000	71,848778
340,000000	71,994864
339,000000	71,973246
338,000000	71,655350
337,000000	70,954153
336,000000	69,883751
335,000000	66,354952
334,000000	63,182687
333,000000	64,310968
332,000000	69,534023
331,000000	71,411372
330,000000	72,503487
329,000000	72,890812
328,000000	72,915856
327,000000	72,820555
326,000000	72,720388
325,000000	72,245077
324,000000	71,834675
323,000000	71,546172
322,000000	71,380029
321,000000	71,283872
320,000000	70,995034
319,000000	70,680769
318,000000	70,430571
317,000000	70,200563
316,000000	69,908979
315,000000	69,460312
314,000000	69,231872
313,000000	69,015593
312,000000	68,677258
311,000000	68,237594
310,000000	68,034300
309,000000	67,614325
308,000000	67,322207
307,000000	66,993691
306,000000	66,599663
305,000000	66,335038
304,000000	65,943451
303,000000	65,481952
302,000000	64,998800
301,000000	64,440517
300,000000	63,683778
299,000000	62,732942
298,000000	61,670307
297,000000	60,320383
296,000000	58,843851
295,000000	57,466712
294,000000	55,787129
293,000000	55,008350
292,000000	52,861126
291,000000	48,558482
290,000000	43,533376
289,000000	45,587376
288,000000	34,585442
287,000000	40,911663
286,000000	51,314847
285,000000	54,335276
284,000000	54,030011
283,000000	52,716514
282,000000	50,523611
281,000000	44,884403
280,000000	35,679471
279,000000	33,376880
278,000000	41,391459
277,000000	45,450670
276,000000	45,937330
275,000000	45,634097
274,000000	45,662941
273,000000	45,630093
272,000000	45,290622
271,000000	44,699404
270,000000	44,059975
269,000000	43,722419
268,000000	42,938283
267,000000	42,047539
266,000000	40,955757
265,000000	39,627422
264,000000	38,010311
263,000000	34,929787
262,000000	34,279045
261,000000	33,656544
260,000000	33,320019
259,000000	33,913689
258,000000	33,243913
257,000000	32,279103
256,000000	31,106628
255,000000	29,790972
254,000000	28,342481
253,000000	26,593825
252,000000	24,056555
251,000000	21,903853
250,000000	20,282016
249,000000	18,968290
248,000000	17,374812
247,000000	15,147970
246,000000	12,866667
245,000000	10,391079
244,000000	7,755245
243,000000	5,195796
242,000000	2,418398
241,000000	1,789820
240,000000	1,455524
239,000000	0,768409
238,000000	0,299676
237,000000	0,056044
236,000000	0,003208
235,000000	0,003196
234,000000	0,003191
233,000000	0,003141
232,000000	0,003169
231,000000	0,003299
230,000000	0,003275
229,000000	0,003254
228,000000	0,003472
227,000000	0,003533
226,000000	0,003561
225,000000	0,003490
224,000000	0,003468
223,000000	0,003630
222,000000	0,003823
221,000000	0,003891
220,000000	0,003883
219,000000	0,003972
218,000000	0,004209
217,000000	0,004290
216,000000	0,004140
215,000000	0,004381
214,000000	0,004582
213,000000	0,004587
212,000000	0,004805
211,000000	0,005041
210,000000	0,005050
209,000000	0,005273
208,000000	0,005702
207,000000	0,005820
206,000000	0,006059
205,000000	0,006656
204,000000	0,007125
203,000000	0,007377
202,000000	0,007723
201,000000	0,008640
200,000000	0,009399
