PE UV       SUBTECH     SPECTRUM    ASCII       PEDS        4.00        
   -1
2_480.Probe.asc
24/07/02
09:47:07.00
24/07/02
09:47:07.00
student

200,000000
1
Lambda 365
365K7092207
  / Unknown

480
1
2
0
0
Both on
1
1
1
None
0
0
0
0
 
 
0
0
0
0
0
 
 
 
0
 
0
400
0
 
0
 
 
 
0
0
0
 
0
 
 
 
0
 
 
0
0
0
0
0
 
 
 
 
0
0


0
0
#HDR
-1
-1
#GR
nm
%T
1.0
0.0
1100,000000
-1,000000
901
8
88,334864
0,000721
#DATA
1100,000000	88,036670
1099,000000	88,063616
1098,000000	88,085670
1097,000000	88,107256
1096,000000	88,129789
1095,000000	88,151563
1094,000000	88,159249
1093,000000	88,175064
1092,000000	88,189089
1091,000000	88,201498
1090,000000	88,220212
1089,000000	88,238230
1088,000000	88,247676
1087,000000	88,252752
1086,000000	88,255513
1085,000000	88,257642
1084,000000	88,281154
1083,000000	88,284116
1082,000000	88,290724
1081,000000	88,299530
1080,000000	88,297598
1079,000000	88,293033
1078,000000	88,303680
1077,000000	88,306829
1076,000000	88,307388
1075,000000	88,318007
1074,000000	88,318290
1073,000000	88,323395
1072,000000	88,326431
1071,000000	88,328240
1070,000000	88,331008
1069,000000	88,328489
1068,000000	88,322379
1067,000000	88,325172
1066,000000	88,330466
1065,000000	88,330480
1064,000000	88,334864
1063,000000	88,327532
1062,000000	88,325449
1061,000000	88,328029
1060,000000	88,330054
1059,000000	88,321829
1058,000000	88,324076
1057,000000	88,321357
1056,000000	88,319830
1055,000000	88,323704
1054,000000	88,321424
1053,000000	88,323739
1052,000000	88,319456
1051,000000	88,314142
1050,000000	88,311307
1049,000000	88,304762
1048,000000	88,305504
1047,000000	88,302515
1046,000000	88,297485
1045,000000	88,292868
1044,000000	88,290442
1043,000000	88,288081
1042,000000	88,289118
1041,000000	88,287954
1040,000000	88,281674
1039,000000	88,271999
1038,000000	88,272022
1037,000000	88,266715
1036,000000	88,258645
1035,000000	88,252286
1034,000000	88,253738
1033,000000	88,244504
1032,000000	88,240286
1031,000000	88,236666
1030,000000	88,232608
1029,000000	88,230798
1028,000000	88,227852
1027,000000	88,226180
1026,000000	88,221156
1025,000000	88,213669
1024,000000	88,209078
1023,000000	88,206599
1022,000000	88,201909
1021,000000	88,200411
1020,000000	88,200770
1019,000000	88,197408
1018,000000	88,191157
1017,000000	88,191986
1016,000000	88,191719
1015,000000	88,189645
1014,000000	88,188490
1013,000000	88,182957
1012,000000	88,183737
1011,000000	88,183572
1010,000000	88,182383
1009,000000	88,182875
1008,000000	88,184823
1007,000000	88,178832
1006,000000	88,172657
1005,000000	88,168899
1004,000000	88,167758
1003,000000	88,165191
1002,000000	88,165938
1001,000000	88,165733
1000,000000	88,163050
999,000000	88,158557
998,000000	88,160191
997,000000	88,157723
996,000000	88,156355
995,000000	88,153694
994,000000	88,147045
993,000000	88,138708
992,000000	88,136800
991,000000	88,135380
990,000000	88,132306
989,000000	88,126960
988,000000	88,121405
987,000000	88,116550
986,000000	88,108618
985,000000	88,101939
984,000000	88,098966
983,000000	88,094933
982,000000	88,093916
981,000000	88,087424
980,000000	88,081177
979,000000	88,078232
978,000000	88,073572
977,000000	88,070707
976,000000	88,063316
975,000000	88,054798
974,000000	88,048606
973,000000	88,047386
972,000000	88,047128
971,000000	88,046747
970,000000	88,044553
969,000000	88,041748
968,000000	88,043405
967,000000	88,038632
966,000000	88,037626
965,000000	88,037671
964,000000	88,036027
963,000000	88,030203
962,000000	88,023017
961,000000	88,021213
960,000000	88,017706
959,000000	88,012345
958,000000	88,010686
957,000000	88,004666
956,000000	88,004106
955,000000	88,002142
954,000000	87,997653
953,000000	87,993131
952,000000	87,984166
951,000000	87,983071
950,000000	87,980035
949,000000	87,974889
948,000000	87,972203
947,000000	87,967726
946,000000	87,958906
945,000000	87,954970
944,000000	87,951903
943,000000	87,942294
942,000000	87,941887
941,000000	87,934863
940,000000	87,930491
939,000000	87,926545
938,000000	87,918269
937,000000	87,911157
936,000000	87,899238
935,000000	87,890802
934,000000	87,883729
933,000000	87,873888
932,000000	87,862084
931,000000	87,840798
930,000000	87,822383
929,000000	87,795683
928,000000	87,750793
927,000000	87,701574
926,000000	87,628407
925,000000	87,541615
924,000000	87,445410
923,000000	87,344094
922,000000	87,243798
921,000000	87,165622
920,000000	87,090599
919,000000	87,010865
918,000000	86,927307
917,000000	86,860058
916,000000	86,797204
915,000000	86,746162
914,000000	86,714270
913,000000	86,710506
912,000000	86,749713
911,000000	86,792416
910,000000	86,833651
909,000000	86,877728
908,000000	86,926557
907,000000	86,977309
906,000000	87,032438
905,000000	87,089533
904,000000	87,140707
903,000000	87,178628
902,000000	87,196759
901,000000	87,220965
900,000000	87,221940
899,000000	87,214565
898,000000	87,201514
897,000000	87,171846
896,000000	87,128773
895,000000	87,078375
894,000000	87,013270
893,000000	86,935492
892,000000	86,854694
891,000000	86,757364
890,000000	86,656862
889,000000	86,567132
888,000000	86,493746
887,000000	86,435894
886,000000	86,393808
885,000000	86,349650
884,000000	86,320740
883,000000	86,310767
882,000000	86,317162
881,000000	86,362382
880,000000	86,435768
879,000000	86,520376
878,000000	86,612615
877,000000	86,712695
876,000000	86,808983
875,000000	86,897360
874,000000	86,989624
873,000000	87,081164
872,000000	87,162512
871,000000	87,228184
870,000000	87,279780
869,000000	87,329027
868,000000	87,368376
867,000000	87,390971
866,000000	87,417198
865,000000	87,442241
864,000000	87,455054
863,000000	87,462805
862,000000	87,472336
861,000000	87,472179
860,000000	87,478102
859,000000	87,481791
858,000000	87,484968
857,000000	87,487807
856,000000	87,480210
855,000000	87,488545
854,000000	87,491119
853,000000	87,490218
852,000000	87,488315
851,000000	87,481067
850,000000	87,479087
849,000000	87,476642
848,000000	87,473722
847,000000	87,471040
846,000000	87,469903
845,000000	87,468278
844,000000	87,456684
843,000000	87,448223
842,000000	87,447705
841,000000	87,445151
840,000000	87,440744
839,000000	87,440817
838,000000	87,433894
837,000000	87,420103
836,000000	87,414646
835,000000	87,409280
834,000000	87,404735
833,000000	87,401456
832,000000	87,398402
831,000000	87,393122
830,000000	87,384376
829,000000	87,377800
828,000000	87,370743
827,000000	87,364086
826,000000	87,361295
825,000000	87,358285
824,000000	87,350540
823,000000	87,343411
822,000000	87,338016
821,000000	87,332618
820,000000	87,322657
819,000000	87,307044
818,000000	87,301971
817,000000	87,302323
816,000000	87,294033
815,000000	87,287965
814,000000	87,273492
813,000000	87,267530
812,000000	87,266552
811,000000	87,260461
810,000000	87,254783
809,000000	87,243285
808,000000	87,235930
807,000000	87,232030
806,000000	87,226803
805,000000	87,212122
804,000000	87,215457
803,000000	87,212072
802,000000	87,203808
801,000000	87,196985
800,000000	87,192949
799,000000	87,190441
798,000000	87,185901
797,000000	87,177506
796,000000	87,166159
795,000000	87,157925
794,000000	87,153007
793,000000	87,145499
792,000000	87,138621
791,000000	87,135007
790,000000	87,135656
789,000000	87,129180
788,000000	87,114661
787,000000	87,107495
786,000000	87,105553
785,000000	87,091385
784,000000	87,081817
783,000000	87,074011
782,000000	87,065758
781,000000	87,054458
780,000000	87,037745
779,000000	87,018026
778,000000	87,011622
777,000000	86,996175
776,000000	86,976671
775,000000	86,964544
774,000000	86,944975
773,000000	86,932985
772,000000	86,923100
771,000000	86,915766
770,000000	86,912889
769,000000	86,917310
768,000000	86,920481
767,000000	86,915665
766,000000	86,910831
765,000000	86,910122
764,000000	86,903394
763,000000	86,900136
762,000000	86,888907
761,000000	86,876629
760,000000	86,864912
759,000000	86,845149
758,000000	86,826972
757,000000	86,812073
756,000000	86,792675
755,000000	86,770515
754,000000	86,756635
753,000000	86,746046
752,000000	86,742439
751,000000	86,738994
750,000000	86,734052
749,000000	86,729700
748,000000	86,732862
747,000000	86,730956
746,000000	86,729781
745,000000	86,727134
744,000000	86,719662
743,000000	86,718898
742,000000	86,711202
741,000000	86,704027
740,000000	86,694410
739,000000	86,680225
738,000000	86,673135
737,000000	86,668069
736,000000	86,667381
735,000000	86,669759
734,000000	86,673363
733,000000	86,676778
732,000000	86,679307
731,000000	86,680320
730,000000	86,680086
729,000000	86,678413
728,000000	86,674216
727,000000	86,667800
726,000000	86,665044
725,000000	86,659539
724,000000	86,650401
723,000000	86,642570
722,000000	86,640160
721,000000	86,634395
720,000000	86,624514
719,000000	86,613899
718,000000	86,608240
717,000000	86,608994
716,000000	86,606785
715,000000	86,591765
714,000000	86,576824
713,000000	86,577739
712,000000	86,567213
711,000000	86,558301
710,000000	86,550175
709,000000	86,540067
708,000000	86,528334
707,000000	86,529336
706,000000	86,525828
705,000000	86,516219
704,000000	86,507356
703,000000	86,502250
702,000000	86,491785
701,000000	86,488031
700,000000	86,479454
699,000000	86,470674
698,000000	86,466222
697,000000	86,468748
696,000000	86,446749
695,000000	86,440035
694,000000	86,434495
693,000000	86,424221
692,000000	86,412582
691,000000	86,405341
690,000000	86,397112
689,000000	86,389182
688,000000	86,379269
687,000000	86,364375
686,000000	86,358598
685,000000	86,334529
684,000000	86,321842
683,000000	86,311550
682,000000	86,286247
681,000000	86,267867
680,000000	86,241700
679,000000	86,211206
678,000000	86,175359
677,000000	86,132147
676,000000	86,077622
675,000000	85,995958
674,000000	85,890196
673,000000	85,737813
672,000000	85,506255
671,000000	85,128661
670,000000	84,448753
669,000000	83,455413
668,000000	82,229396
667,000000	80,890271
666,000000	79,600909
665,000000	78,457388
664,000000	77,522472
663,000000	76,893893
662,000000	76,653886
661,000000	76,847328
660,000000	77,243924
659,000000	77,668514
658,000000	78,083549
657,000000	78,389968
656,000000	78,416646
655,000000	77,933744
654,000000	76,998967
653,000000	75,686218
652,000000	74,102760
651,000000	72,346260
650,000000	70,749752
649,000000	70,006576
648,000000	69,955848
647,000000	70,262571
646,000000	70,524320
645,000000	70,668716
644,000000	70,642594
643,000000	70,227063
642,000000	69,269969
641,000000	67,719780
640,000000	65,793636
639,000000	64,251334
638,000000	63,467935
637,000000	63,504648
636,000000	64,317500
635,000000	65,880301
634,000000	68,367613
633,000000	71,371427
632,000000	74,491947
631,000000	77,341569
630,000000	79,559701
629,000000	81,016821
628,000000	82,061347
627,000000	82,814179
626,000000	83,367341
625,000000	83,780809
624,000000	84,105156
623,000000	84,367556
622,000000	84,587488
621,000000	84,775406
620,000000	84,936001
619,000000	85,082218
618,000000	85,191844
617,000000	85,284531
616,000000	85,362355
615,000000	85,421855
614,000000	85,470518
613,000000	85,495202
612,000000	85,506080
611,000000	85,508302
610,000000	85,506926
609,000000	85,509823
608,000000	85,507517
607,000000	85,508993
606,000000	85,515216
605,000000	85,522582
604,000000	85,519475
603,000000	85,517506
602,000000	85,506545
601,000000	85,491406
600,000000	85,475713
599,000000	85,459247
598,000000	85,448044
597,000000	85,444168
596,000000	85,443408
595,000000	85,445156
594,000000	85,452420
593,000000	85,465654
592,000000	85,468607
591,000000	85,470126
590,000000	85,474403
589,000000	85,480953
588,000000	85,468449
587,000000	85,463697
586,000000	85,457765
585,000000	85,450137
584,000000	85,442368
583,000000	85,429479
582,000000	85,425400
581,000000	85,420860
580,000000	85,415450
579,000000	85,408627
578,000000	85,392452
577,000000	85,385410
576,000000	85,371962
575,000000	85,357340
574,000000	85,346971
573,000000	85,341572
572,000000	85,322540
571,000000	85,307284
570,000000	85,296386
569,000000	85,285615
568,000000	85,266021
567,000000	85,253882
566,000000	85,231315
565,000000	85,209840
564,000000	85,186185
563,000000	85,146586
562,000000	85,113619
561,000000	85,057302
560,000000	84,990862
559,000000	84,890918
558,000000	84,714821
557,000000	84,398723
556,000000	83,713177
555,000000	82,595187
554,000000	81,222905
553,000000	79,863121
552,000000	78,779503
551,000000	77,601772
550,000000	75,996169
549,000000	73,984607
548,000000	71,751407
547,000000	70,036209
546,000000	69,512099
545,000000	69,361955
544,000000	68,997643
543,000000	67,866101
542,000000	65,435387
541,000000	61,513213
540,000000	56,439540
539,000000	50,898088
538,000000	45,930910
537,000000	42,892534
536,000000	43,485611
535,000000	47,603968
534,000000	54,344705
533,000000	62,224822
532,000000	69,356435
531,000000	74,172712
530,000000	77,358514
529,000000	79,445371
528,000000	80,794747
527,000000	81,721565
526,000000	82,339411
525,000000	82,806365
524,000000	83,159808
523,000000	83,415395
522,000000	83,590483
521,000000	83,707429
520,000000	83,818906
519,000000	83,892413
518,000000	83,956231
517,000000	84,040438
516,000000	84,142194
515,000000	84,183290
514,000000	84,190428
513,000000	84,168946
512,000000	84,126558
511,000000	84,077802
510,000000	84,016344
509,000000	83,982863
508,000000	83,979192
507,000000	83,998409
506,000000	84,025710
505,000000	84,058236
504,000000	84,074783
503,000000	84,072571
502,000000	84,051200
501,000000	84,011724
500,000000	83,933038
499,000000	83,788979
498,000000	83,558776
497,000000	83,194003
496,000000	82,634032
495,000000	81,802344
494,000000	80,709037
493,000000	79,264861
492,000000	77,567082
491,000000	75,767258
490,000000	73,794469
489,000000	72,073685
488,000000	71,139947
487,000000	70,844634
486,000000	70,754589
485,000000	70,090946
484,000000	70,277200
483,000000	71,720078
482,000000	73,841453
481,000000	76,000121
480,000000	77,809621
479,000000	78,439343
478,000000	77,575513
477,000000	75,522874
476,000000	72,867787
475,000000	70,510968
474,000000	69,563588
473,000000	69,615196
472,000000	70,274693
471,000000	71,148493
470,000000	71,830026
469,000000	70,747129
468,000000	68,015610
467,000000	64,038373
466,000000	58,297278
465,000000	49,331096
464,000000	36,840116
463,000000	26,470884
462,000000	18,435348
461,000000	12,791832
460,000000	9,613588
459,000000	12,592235
458,000000	18,855819
457,000000	24,206883
456,000000	24,995946
455,000000	19,346242
454,000000	14,223543
453,000000	12,620332
452,000000	14,710513
451,000000	19,152192
450,000000	20,582965
449,000000	14,685632
448,000000	7,958544
447,000000	3,163025
446,000000	1,359985
445,000000	1,651193
444,000000	8,566509
443,000000	24,387697
442,000000	42,300114
441,000000	57,096425
440,000000	65,794528
439,000000	70,367298
438,000000	73,553435
437,000000	75,876753
436,000000	77,470533
435,000000	78,434293
434,000000	78,870298
433,000000	79,109660
432,000000	79,359382
431,000000	79,472538
430,000000	79,260258
429,000000	78,515917
428,000000	76,942874
427,000000	74,668887
426,000000	72,408949
425,000000	71,093741
424,000000	71,265546
423,000000	72,320799
422,000000	70,525986
421,000000	65,735947
420,000000	60,089529
419,000000	56,132660
418,000000	56,291443
417,000000	61,689077
416,000000	66,184933
415,000000	68,912290
414,000000	70,725207
413,000000	72,984704
412,000000	75,801486
411,000000	77,811709
410,000000	79,072313
409,000000	79,776928
408,000000	80,165401
407,000000	80,347770
406,000000	80,459970
405,000000	80,507792
404,000000	80,515731
403,000000	80,501032
402,000000	80,431318
401,000000	80,418051
400,000000	80,415584
399,000000	80,428742
398,000000	80,444358
397,000000	80,393839
396,000000	80,276519
395,000000	80,151559
394,000000	79,835800
393,000000	79,266918
392,000000	78,536823
391,000000	78,100332
390,000000	78,141370
389,000000	77,742818
388,000000	76,438662
387,000000	74,147171
386,000000	72,937855
385,000000	73,589974
384,000000	74,715269
383,000000	75,122896
382,000000	73,877696
381,000000	74,663606
380,000000	76,672811
379,000000	78,198416
378,000000	78,808614
377,000000	78,999004
376,000000	79,147267
375,000000	79,198514
374,000000	79,111708
373,000000	78,781883
372,000000	78,047765
371,000000	75,851043
370,000000	73,002465
369,000000	70,570736
368,000000	68,788411
367,000000	67,159848
366,000000	62,898286
365,000000	57,080594
364,000000	50,061070
363,000000	41,176501
362,000000	28,726104
361,000000	20,142259
360,000000	29,012508
359,000000	43,921042
358,000000	58,511554
357,000000	67,003552
356,000000	70,986427
355,000000	72,784178
354,000000	73,248794
353,000000	73,118850
352,000000	73,037776
351,000000	73,027355
350,000000	72,232111
349,000000	70,912061
348,000000	69,795190
347,000000	69,694128
346,000000	70,458260
345,000000	70,619461
344,000000	70,924491
343,000000	71,449123
342,000000	72,005665
341,000000	72,161506
340,000000	72,293852
339,000000	72,210993
338,000000	71,819481
337,000000	71,060682
336,000000	69,851746
335,000000	66,522440
334,000000	64,439067
333,000000	65,222619
332,000000	68,542283
331,000000	71,161947
330,000000	72,436731
329,000000	73,064959
328,000000	73,221208
327,000000	73,097667
326,000000	72,906734
325,000000	72,534867
324,000000	72,160402
323,000000	71,832138
322,000000	71,589130
321,000000	71,440935
320,000000	71,209589
319,000000	70,946880
318,000000	70,661102
317,000000	70,362562
316,000000	70,060837
315,000000	69,754654
314,000000	69,449056
313,000000	69,151761
312,000000	68,866829
311,000000	68,582343
310,000000	68,252551
309,000000	67,972822
308,000000	67,642861
307,000000	67,296003
306,000000	66,942234
305,000000	66,548001
304,000000	66,127792
303,000000	65,681550
302,000000	65,202198
301,000000	64,635534
300,000000	63,900737
299,000000	63,002296
298,000000	61,902601
297,000000	60,648214
296,000000	59,268107
295,000000	57,798388
294,000000	56,417777
293,000000	55,136799
292,000000	52,703515
291,000000	49,320667
290,000000	45,706355
289,000000	43,020449
288,000000	40,107107
287,000000	42,696444
286,000000	48,364011
285,000000	53,674813
284,000000	54,111881
283,000000	52,929872
282,000000	50,236734
281,000000	45,177767
280,000000	38,243959
279,000000	35,438936
278,000000	40,130158
277,000000	44,104794
276,000000	45,941276
275,000000	46,055253
274,000000	45,964912
273,000000	45,889557
272,000000	45,560025
271,000000	45,050519
270,000000	44,484817
269,000000	44,000650
268,000000	43,290621
267,000000	42,379943
266,000000	41,287934
265,000000	39,932647
264,000000	38,185514
263,000000	36,081873
262,000000	34,792960
261,000000	34,164755
260,000000	33,974301
259,000000	33,927782
258,000000	33,536419
257,000000	32,604824
256,000000	31,447327
255,000000	30,149745
254,000000	28,705374
253,000000	26,954682
252,000000	24,646506
251,000000	22,522337
250,000000	20,768826
249,000000	19,278993
248,000000	17,621064
247,000000	15,524596
246,000000	13,212367
245,000000	10,726548
244,000000	8,129725
243,000000	5,515540
242,000000	3,392475
241,000000	2,167309
240,000000	1,459300
239,000000	0,959331
238,000000	0,462330
237,000000	0,200025
236,000000	0,061803
235,000000	0,008359
234,000000	0,000723
233,000000	0,000721
232,000000	0,000759
231,000000	0,000778
230,000000	0,000785
229,000000	0,000796
228,000000	0,000816
227,000000	0,000781
226,000000	0,000791
225,000000	0,000824
224,000000	0,000850
223,000000	0,000850
222,000000	0,000858
221,000000	0,000861
220,000000	0,000899
219,000000	0,000948
218,000000	0,000978
217,000000	0,000973
216,000000	0,000965
215,000000	0,001018
214,000000	0,001064
213,000000	0,001076
212,000000	0,001118
211,000000	0,001158
210,000000	0,001185
209,000000	0,001230
208,000000	0,001289
207,000000	0,001320
206,000000	0,001445
205,000000	0,001510
204,000000	0,001627
203,000000	0,001756
202,000000	0,001776
201,000000	0,001983
200,000000	0,002116
